##NAMES=Aeschynite-(Y)
##LOCALITY=Hittero, Vest-Agder, Norway
##RRUFFID=R060312
##CHEMISTRY=(Y,Ca,Fe,Th)(Ti,Nb)_2_(O,OH)_6_
118.4192, 14077.59
120.3477, 14087.43
122.2761, 14123.28
124.2046, 14166.39
126.1331, 14200.86
128.0615, 14225.57
129.9900, 14255.68
131.9185, 14291.87
133.8469, 14324.03
135.7754, 14348.81
137.7039, 14367.68
139.6323, 14383.06
141.5608, 14393.96
143.4893, 14394.60
145.4177, 14384.73
147.3462, 14365.94
149.2747, 14332.39
151.2031, 14295.71
153.1316, 14261.17
155.0601, 14228.40
156.9885, 14195.55
158.9170, 14160.18
160.8455, 14135.97
162.7739, 14128.50
164.7024, 14129.60
166.6309, 14138.63
168.5593, 14152.42
170.4878, 14163.17
172.4163, 14170.49
174.3447, 14180.77
176.2732, 14192.26
178.2017, 14210.57
180.1301, 14239.05
182.0586, 14273.04
183.9871, 14305.36
185.9155, 14336.58
187.8440, 14376.56
189.7725, 14427.07
191.7009, 14485.13
193.6294, 14546.83
195.5579, 14618.07
197.4863, 14705.58
199.4148, 14808.42
201.3433, 14915.44
203.2717, 15025.45
205.2002, 15142.22
207.1287, 15268.62
209.0571, 15399.53
210.9856, 15533.71
212.9141, 15670.47
214.8425, 15809.40
216.7710, 15950.86
218.6995, 16087.79
220.6279, 16216.67
222.5564, 16344.63
224.4849, 16480.11
226.4133, 16611.33
228.3418, 16725.40
230.2703, 16823.21
232.1987, 16903.17
234.1272, 16965.42
236.0557, 17006.22
237.9841, 17019.36
239.9126, 17018.77
241.8411, 17014.51
243.7695, 17000.99
245.6980, 16966.49
247.6265, 16907.77
249.5549, 16850.91
251.4834, 16799.15
253.4119, 16751.09
255.3403, 16704.95
257.2688, 16665.39
259.1973, 16638.93
261.1257, 16623.71
263.0542, 16609.62
264.9827, 16588.18
266.9111, 16584.89
268.8396, 16604.23
270.7681, 16637.20
272.6965, 16683.93
274.6250, 16738.47
276.5535, 16791.97
278.4819, 16843.30
280.4104, 16904.29
282.3389, 16987.30
284.2673, 17064.12
286.1958, 17127.77
288.1243, 17187.55
290.0527, 17248.41
291.9812, 17310.40
293.9097, 17373.33
295.8381, 17434.36
297.7666, 17502.87
299.6951, 17583.06
301.6235, 17662.32
303.5520, 17741.10
305.4805, 17812.94
307.4089, 17874.08
309.3374, 17925.02
311.2659, 17968.09
313.1943, 18005.29
315.1228, 18029.28
317.0513, 18039.42
318.9797, 18037.31
320.9082, 18021.89
322.8367, 17994.82
324.7651, 17956.46
326.6936, 17906.98
328.6221, 17846.66
330.5505, 17771.15
332.4790, 17701.65
334.4075, 17639.48
336.3359, 17584.88
338.2644, 17534.30
340.1929, 17494.28
342.1213, 17471.82
344.0498, 17465.96
345.9783, 17471.35
347.9067, 17487.12
349.8352, 17514.30
351.7637, 17555.86
353.6921, 17603.50
355.6206, 17653.78
357.5491, 17708.82
359.4775, 17768.91
361.4060, 17836.05
363.3345, 17920.51
365.2629, 18023.29
367.1914, 18122.13
369.1199, 18210.18
371.0483, 18302.74
372.9768, 18404.08
374.9053, 18511.77
376.8337, 18630.87
378.7622, 18752.71
380.6907, 18854.25
382.6191, 18936.38
384.5476, 19011.18
386.4761, 19080.63
388.4045, 19140.42
390.3330, 19192.76
392.2615, 19232.71
394.1899, 19258.79
396.1184, 19270.80
398.0469, 19266.74
399.9753, 19248.00
401.9038, 19216.80
403.8323, 19172.47
405.7607, 19119.21
407.6892, 19058.69
409.6177, 18987.46
411.5461, 18900.57
413.4746, 18805.01
415.4031, 18705.13
417.3315, 18601.88
419.2600, 18499.16
421.1885, 18397.28
423.1169, 18288.86
425.0454, 18167.96
426.9739, 18050.24
428.9023, 17937.52
430.8308, 17830.68
432.7593, 17732.76
434.6877, 17640.22
436.6162, 17546.37
438.5447, 17452.87
440.4731, 17369.32
442.4016, 17298.89
444.3301, 17227.74
446.2585, 17153.98
448.1870, 17079.76
450.1155, 17003.70
452.0439, 16929.99
453.9724, 16864.19
455.9009, 16801.70
457.8293, 16735.70
459.7578, 16666.07
461.6863, 16595.47
463.6147, 16519.49
465.5432, 16451.09
467.4717, 16404.85
469.4001, 16346.18
471.3286, 16259.15
473.2571, 16161.52
475.1855, 16065.81
477.1140, 15968.17
479.0425, 15861.46
480.9709, 15744.98
482.8994, 15622.83
484.8279, 15494.61
486.7563, 15359.46
488.6848, 15218.75
490.6133, 15068.19
492.5417, 14900.65
494.4702, 14729.92
496.3987, 14564.79
498.3271, 14402.73
500.2556, 14239.74
502.1841, 14076.05
504.1125, 13914.00
506.0410, 13752.11
507.9695, 13600.44
509.8979, 13460.91
511.8264, 13328.33
513.7549, 13199.97
515.6833, 13079.61
517.6118, 12968.23
519.5403, 12865.43
521.4688, 12770.50
523.3972, 12683.82
525.3257, 12610.55
527.2542, 12551.66
529.1826, 12484.77
531.1111, 12405.97
533.0396, 12336.79
534.9680, 12287.78
536.8965, 12239.13
538.8250, 12181.56
540.7534, 12121.92
542.6819, 12064.25
544.6104, 12007.16
546.5388, 11949.51
548.4673, 11890.58
550.3958, 11828.17
552.3242, 11762.74
554.2527, 11691.24
556.1812, 11611.98
558.1096, 11533.16
560.0381, 11455.71
561.9666, 11381.08
563.8950, 11311.84
565.8235, 11242.60
567.7520, 11168.51
569.6804, 11090.81
571.6089, 11012.03
573.5374, 10931.91
575.4658, 10849.61
577.3943, 10765.25
579.3228, 10678.60
581.2512, 10583.92
583.1797, 10503.07
585.1082, 10448.29
587.0366, 10395.77
588.9651, 10337.17
590.8936, 10278.43
592.8220, 10221.42
594.7505, 10168.29
596.6790, 10122.50
598.6074, 10082.36
600.5359, 10042.99
602.4644, 10004.20
604.3928, 9971.514
606.3213, 9949.281
608.2498, 9922.870
610.1782, 9884.608
612.1067, 9852.748
614.0352, 9833.223
615.9636, 9818.912
617.8921, 9806.470
619.8206, 9797.582
621.7490, 9792.940
623.6775, 9793.528
625.6060, 9802.620
627.5344, 9819.193
629.4629, 9833.876
631.3914, 9843.888
633.3198, 9862.755
635.2483, 9893.178
637.1768, 9927.078
639.1052, 9966.427
641.0337, 10005.19
642.9622, 10040.98
644.8906, 10077.17
646.8191, 10117.40
648.7476, 10157.26
650.6760, 10193.35
652.6045, 10226.08
654.5330, 10255.38
656.4614, 10281.42
658.3899, 10308.22
660.3184, 10336.39
662.2468, 10356.76
664.1753, 10369.51
666.1038, 10374.80
668.0322, 10371.52
669.9607, 10366.75
671.8892, 10368.01
673.8176, 10359.11
675.7461, 10331.34
677.6746, 10292.08
679.6030, 10242.38
681.5315, 10185.68
683.4600, 10125.59
685.3884, 10060.73
687.3169, 9987.832
689.2454, 9907.518
691.1738, 9825.189
693.1023, 9741.098
695.0308, 9651.672
696.9592, 9556.651
698.8877, 9459.280
700.8162, 9359.609
702.7446, 9259.083
704.6731, 9156.970
706.6016, 9055.668
708.5300, 8956.589
710.4585, 8857.527
712.3870, 8759.631
714.3154, 8659.223
716.2439, 8551.095
718.1724, 8439.424
720.1008, 8329.240
722.0293, 8221.591
723.9578, 8120.620
725.8862, 8024.586
727.8147, 7924.235
729.7432, 7818.970
731.6716, 7714.709
733.6001, 7611.407
735.5286, 7512.101
737.4570, 7419.322
739.3855, 7327.603
741.3140, 7236.706
743.2424, 7146.668
745.1709, 7056.389
747.0994, 6968.897
749.0278, 6885.916
750.9563, 6805.568
752.8848, 6723.829
754.8132, 6645.642
756.7417, 6578.585
758.6702, 6518.205
760.5986, 6458.235
762.5271, 6398.624
764.4556, 6339.026
766.3840, 6279.489
768.3125, 6220.813
770.2410, 6162.630
772.1694, 6107.957
774.0979, 6057.776
776.0264, 6009.724
777.9548, 5965.029
779.8833, 5920.351
781.8118, 5875.087
783.7402, 5829.999
785.6687, 5784.849
787.5972, 5740.216
789.5256, 5695.335
791.4541, 5652.257
793.3826, 5612.017
795.3110, 5574.674
797.2395, 5544.528
799.1680, 5513.646
801.0964, 5469.711
803.0249, 5420.314
804.9534, 5380.589
806.8818, 5347.833
808.8103, 5312.791
810.7388, 5275.492
812.6672, 5235.419
814.5957, 5192.083
816.5242, 5153.257
818.4526, 5120.052
820.3811, 5082.061
822.3096, 5037.745
824.2380, 4994.272
826.1665, 4953.069
828.0950, 4909.356
830.0234, 4861.090
831.9519, 4812.972
833.8804, 4767.872
835.8088, 4720.109
837.7373, 4667.171
839.6658, 4611.991
841.5942, 4555.970
843.5227, 4498.440
845.4512, 4438.229
847.3796, 4377.327
849.3081, 4317.943
851.2366, 4258.025
853.1650, 4194.111
855.0935, 4129.046
857.0220, 4068.271
858.9504, 4008.643
860.8789, 3942.198
862.8074, 3871.735
864.7358, 3805.581
866.6643, 3742.891
868.5928, 3681.291
870.5212, 3620.243
872.4497, 3556.320
874.3782, 3489.815
876.3066, 3426.709
878.2351, 3367.454
880.1636, 3309.477
882.0920, 3252.761
884.0205, 3195.253
885.9490, 3135.533
887.8774, 3079.997
889.8059, 3031.171
891.7344, 2982.745
893.6628, 2932.966
895.5913, 2884.866
897.5198, 2838.279
899.4482, 2794.103
901.3767, 2752.984
903.3052, 2713.479
905.2336, 2676.859
907.1621, 2639.170
909.0906, 2596.696
911.0190, 2555.715
912.9475, 2519.113
914.8760, 2485.668
916.8044, 2457.371
918.7329, 2428.693
920.6614, 2394.194
922.5898, 2359.042
924.5183, 2327.780
926.4468, 2298.053
928.3752, 2268.045
930.3037, 2237.847
932.2322, 2206.567
934.1606, 2175.781
936.0891, 2148.248
938.0176, 2122.421
939.9460, 2095.496
941.8745, 2068.140
943.8030, 2041.724
945.7314, 2016.282
947.6599, 1992.640
949.5884, 1970.064
951.5168, 1944.950
953.4453, 1918.243
955.3738, 1894.811
957.3022, 1874.116
959.2307, 1851.989
961.1592, 1828.518
963.0876, 1804.867
965.0161, 1781.064
966.9446, 1760.890
968.8730, 1744.354
970.8015, 1724.876
972.7300, 1702.365
974.6584, 1683.882
976.5869, 1669.667
978.5154, 1651.408
980.4438, 1628.695
982.3723, 1610.532
984.3008, 1597.648
986.2292, 1584.668
988.1577, 1571.209
990.0862, 1555.811
992.0146, 1538.069
993.9431, 1523.732
995.8716, 1513.790
997.8000, 1501.396
999.7285, 1485.245
1001.657, 1471.749
1003.585, 1461.962
1005.514, 1453.106
1007.442, 1445.323
1009.371, 1434.616
1011.299, 1419.820
1013.228, 1405.065
1015.156, 1390.161
1017.085, 1379.129
1019.013, 1373.500
1020.942, 1368.410
1022.870, 1363.917
1024.799, 1357.595
1026.727, 1348.084
1028.656, 1339.779
1030.584, 1334.038
1032.512, 1327.115
1034.441, 1317.148
1036.369, 1309.734
1038.298, 1306.718
1040.226, 1303.512
1042.155, 1300.271
1044.083, 1295.850
1046.012, 1288.664
1047.940, 1283.093
1049.869, 1280.760
1051.797, 1277.083
1053.726, 1269.926
1055.654, 1265.127
1057.583, 1265.056
1059.511, 1263.100
1061.439, 1257.226
1063.368, 1253.739
1065.296, 1254.807
1067.225, 1253.612
1069.153, 1248.240
1071.082, 1245.125
1073.010, 1245.488
1074.939, 1245.205
1076.867, 1243.685
1078.796, 1242.583
1080.724, 1242.116
1082.653, 1241.119
1084.581, 1239.094
1086.510, 1239.037
1088.438, 1241.852
1090.366, 1241.835
1092.295, 1238.191
1094.223, 1236.589
1096.152, 1237.404
1098.080, 1239.372
1100.009, 1242.561
1101.937, 1244.190
1103.866, 1244.096
1105.794, 1244.556
1107.723, 1245.638
1109.651, 1250.758
1111.580, 1259.475
1113.508, 1262.793
1115.437, 1261.454
1117.365, 1264.034
1119.293, 1269.813
1121.222, 1273.000
1123.150, 1274.670
1125.079, 1280.722
1127.007, 1289.452
1128.936, 1294.096
1130.864, 1296.615
1132.793, 1303.075
1134.721, 1311.617
1136.650, 1317.719
1138.578, 1322.891
1140.507, 1329.495
1142.435, 1337.654
1144.364, 1348.695
1146.292, 1360.322
1148.220, 1368.825
1150.149, 1376.594
1152.077, 1386.583
1154.006, 1396.979
1155.934, 1405.859
1157.863, 1414.359
1159.791, 1422.171
1161.720, 1431.754
1163.648, 1446.009
1165.577, 1461.105
1167.505, 1476.547
1169.434, 1489.616
1171.362, 1495.968
1173.291, 1504.713
1175.219, 1520.367
1177.147, 1537.382
1179.076, 1554.559
1181.004, 1571.785
1182.933, 1588.554
1184.861, 1606.119
1186.790, 1625.404
1188.718, 1643.872
1190.647, 1660.475
1192.575, 1678.772
1194.504, 1699.791
1196.432, 1719.989
1198.361, 1738.683
1200.289, 1760.265
1202.218, 1784.896
1204.146, 1807.756
1206.074, 1829.055
1208.003, 1856.155
1209.931, 1887.554
1211.860, 1913.928
1213.788, 1937.213
1215.717, 1963.383
1217.645, 1991.604
1219.574, 2019.637
1221.502, 2048.558
1223.431, 2080.435
1225.359, 2113.561
1227.288, 2146.044
1229.216, 2178.565
1231.145, 2211.832
1233.073, 2245.023
1235.001, 2276.494
1236.930, 2309.669
1238.858, 2346.953
1240.787, 2384.567
1242.715, 2421.167
1244.644, 2458.304
1246.572, 2495.969
1248.501, 2535.841
1250.429, 2578.774
1252.358, 2619.579
1254.286, 2657.453
1256.215, 2695.042
1258.143, 2732.773
1260.072, 2774.543
1262.000, 2819.815
1263.928, 2863.507
1265.857, 2905.892
1267.785, 2946.731
1269.714, 2988.198
1271.642, 3036.244
1273.571, 3086.633
1275.499, 3131.294
1277.428, 3176.128
1279.356, 3228.732
1281.285, 3282.429
1283.213, 3330.222
1285.142, 3379.895
1287.070, 3436.978
1288.999, 3494.773
1290.927, 3550.570
1292.855, 3607.500
1294.784, 3665.843
1296.712, 3726.602
1298.641, 3790.715
1300.569, 3854.261
1302.498, 3915.431
1304.426, 3988.766
1306.355, 4073.830
1308.283, 4155.508
1310.212, 4234.617
1312.140, 4312.015
1314.069, 4392.382
1315.997, 4486.799
1317.926, 4589.501
1319.854, 4694.702
1321.782, 4802.890
1323.711, 4912.261
1325.639, 5029.165
1327.568, 5158.284
1329.496, 5292.599
1331.425, 5428.284
1333.353, 5573.103
1335.282, 5729.500
1337.210, 5891.671
1339.139, 6059.326
1341.067, 6228.856
1342.996, 6400.174
1344.924, 6576.671
1346.853, 6757.382
1348.781, 6939.383
1350.709, 7121.548
1352.638, 7301.914
1354.566, 7482.008
1356.495, 7666.151
1358.423, 7848.001
1360.352, 8024.920
1362.280, 8194.802
1364.209, 8359.595
1366.137, 8509.575
1368.066, 8638.418
1369.994, 8766.919
1371.923, 8899.441
1373.851, 9014.875
1375.780, 9111.636
1377.708, 9190.940
1379.636, 9255.780
1381.565, 9317.013
1383.493, 9371.475
1385.422, 9408.616
1387.350, 9437.005
1389.279, 9462.478
1391.207, 9488.163
1393.136, 9519.084
1395.064, 9544.718
1396.993, 9558.443
1398.921, 9570.054
1400.850, 9577.690
1402.778, 9595.285
1404.707, 9623.981
1406.635, 9663.120
1408.563, 9712.507
1410.492, 9770.731
1412.420, 9837.443
1414.349, 9911.476
1416.277, 9994.685
1418.206, 10090.07
1420.134, 10193.57
1422.063, 10301.83
1423.991, 10417.18
1425.920, 10537.95
1427.848, 10671.87
1429.777, 10827.69
1431.705, 10971.71
1433.634, 11101.54
1435.562, 11224.01
1437.490, 11341.59
1439.419, 11472.00
1441.347, 11606.50
1443.276, 11723.84
1445.204, 11837.22
1447.133, 11962.37
1449.061, 12084.81
1450.990, 12197.37
1452.918, 12306.51
1454.847, 12412.36
1456.775, 12525.60
1458.704, 12647.91
1460.632, 12780.98
1462.561, 12924.95
1464.489, 13075.88
1466.417, 13239.12
1468.346, 13430.30
1470.274, 13636.63
1472.203, 13845.28
1474.131, 14059.42
1476.060, 14282.33
1477.988, 14507.69
1479.917, 14736.48
1481.845, 14956.93
1483.774, 15168.16
1485.702, 15372.32
1487.631, 15567.90
1489.559, 15747.07
1491.488, 15908.64
1493.416, 16060.15
1495.344, 16175.86
1497.273, 16237.04
1499.201, 16243.27
1501.130, 16188.02
1503.058, 16088.48
1504.987, 15949.02
1506.915, 15766.63
1508.844, 15542.87
1510.772, 15277.90
1512.701, 14978.42
1514.629, 14648.53
1516.558, 14305.93
1518.486, 13962.44
1520.415, 13622.27
1522.343, 13282.00
1524.271, 12956.22
1526.200, 12643.86
1528.128, 12358.03
1530.057, 12097.87
1531.985, 11886.36
1533.914, 11720.06
1535.842, 11588.09
1537.771, 11493.07
1539.699, 11438.19
1541.628, 11420.78
1543.556, 11447.58
1545.485, 11490.06
1547.413, 11538.86
1549.342, 11610.79
1551.270, 11706.50
1553.198, 11803.21
1555.127, 11899.84
1557.055, 11997.44
1558.984, 12091.31
1560.912, 12184.29
1562.841, 12259.97
1564.769, 12313.48
1566.698, 12344.60
1568.626, 12353.17
1570.555, 12329.52
1572.483, 12272.93
1574.412, 12202.25
1576.340, 12112.68
1578.269, 11995.61
1580.197, 11855.67
1582.125, 11696.03
1584.054, 11514.69
1585.982, 11305.07
1587.911, 11103.99
1589.839, 10914.90
1591.768, 10711.05
1593.696, 10496.57
1595.625, 10288.19
1597.553, 10083.08
1599.482, 9872.253
1601.410, 9672.406
1603.339, 9495.228
1605.267, 9325.670
1607.196, 9161.797
1609.124, 9002.530
1611.052, 8849.751
1612.981, 8713.722
1614.909, 8590.542
1616.838, 8477.034
1618.766, 8369.400
1620.695, 8264.988
1622.623, 8165.915
1624.552, 8070.502
1626.480, 7985.274
1628.409, 7910.409
1630.337, 7854.263
1632.266, 7806.657
1634.194, 7748.409
1636.123, 7695.453
1638.051, 7658.107
1639.979, 7629.270
1641.908, 7609.633
1643.836, 7587.408
1645.765, 7564.111
1647.693, 7561.537
1649.622, 7571.503
1651.550, 7580.599
1653.479, 7595.232
1655.407, 7622.001
1657.336, 7642.165
1659.264, 7648.805
1661.193, 7671.161
1663.121, 7706.921
1665.050, 7736.173
1666.978, 7764.681
1668.906, 7802.253
1670.835, 7840.928
1672.763, 7877.295
1674.692, 7915.337
1676.620, 7955.763
1678.549, 7999.165
1680.477, 8044.919
1682.406, 8094.957
1684.334, 8142.248
1686.263, 8177.906
1688.191, 8211.160
1690.120, 8246.225
1692.048, 8275.487
1693.977, 8298.521
1695.905, 8313.646
1697.833, 8323.982
1699.762, 8333.813
1701.690, 8342.535
1703.619, 8348.632
1705.547, 8355.955
1707.476, 8366.259
1709.404, 8369.596
1711.333, 8363.313
1713.261, 8333.116
1715.190, 8296.043
1717.118, 8270.951
1719.047, 8242.615
1720.975, 8204.412
1722.904, 8160.812
1724.832, 8112.631
1726.760, 8078.429
1728.689, 8044.323
1730.617, 7983.475
1732.546, 7917.870
1734.474, 7858.089
1736.403, 7800.269
1738.331, 7743.568
1740.260, 7693.536
1742.188, 7645.651
1744.117, 7583.568
1746.045, 7520.628
1747.974, 7465.073
1749.902, 7415.095
1751.831, 7370.297
1753.759, 7330.884
1755.688, 7296.827
1757.616, 7272.563
1759.544, 7249.444
1761.473, 7211.830
1763.401, 7191.158
1765.330, 7198.564
1767.258, 7198.850
1769.187, 7191.556
1771.115, 7191.819
1773.044, 7198.898
1774.972, 7215.389
1776.901, 7231.850
1778.829, 7243.802
1780.758, 7277.420
1782.686, 7329.546
1784.615, 7362.896
1786.543, 7391.382
1788.471, 7433.375
1790.400, 7475.708
1792.328, 7512.653
1794.257, 7555.960
1796.185, 7603.762
1798.114, 7640.492
1800.042, 7669.330
1801.971, 7689.418
1803.899, 7712.642
1805.828, 7746.293
1807.756, 7771.843
1809.685, 7789.166
1811.613, 7803.841
1813.542, 7813.292
1815.470, 7816.872
1817.398, 7809.589
1819.327, 7785.489
1821.255, 7764.154
1823.184, 7744.080
1825.112, 7717.528
1827.041, 7682.821
1828.969, 7635.286
1830.898, 7586.400
1832.826, 7540.700
1834.755, 7483.446
1836.683, 7417.730
1838.612, 7356.698
1840.540, 7290.511
1842.469, 7211.418
1844.397, 7134.096
1846.325, 7062.939
1848.254, 6982.941
1850.182, 6898.524
1852.111, 6819.392
1854.039, 6738.263
1855.968, 6650.457
1857.896, 6565.064
1859.825, 6482.679
1861.753, 6394.166
1863.682, 6303.969
1865.610, 6217.009
1867.539, 6133.489
1869.467, 6053.509
1871.396, 5975.685
1873.324, 5901.352
1875.252, 5837.118
1877.181, 5775.103
1879.109, 5707.539
1881.038, 5642.687
1882.966, 5581.863
1884.895, 5526.677
1886.823, 5475.323
1888.752, 5424.148
1890.680, 5376.354
1892.609, 5334.413
1894.537, 5290.099
1896.466, 5244.421
1898.394, 5204.296
1900.323, 5168.675
1902.251, 5137.508
1904.179, 5109.345
1906.108, 5084.059
1908.036, 5053.682
1909.965, 5023.152
1911.893, 5002.872
1913.822, 4983.055
1915.750, 4959.303
1917.679, 4933.038
1919.607, 4904.526
1921.536, 4873.724
1923.464, 4843.182
1925.393, 4816.216
1927.321, 4785.525
1929.250, 4749.593
1931.178, 4717.770
1933.106, 4685.660
1935.035, 4645.931
1936.963, 4605.240
1938.892, 4566.414
1940.820, 4520.955
1942.749, 4471.281
1944.677, 4425.872
1946.606, 4379.117
1948.534, 4327.916
1950.463, 4275.229
1952.391, 4220.750
1954.320, 4160.981
1956.248, 4097.131
1958.177, 4026.769
1960.105, 3966.947
1962.033, 3919.389
1963.962, 3852.936
1965.890, 3779.281
1967.819, 3715.523
1969.747, 3653.851
1971.676, 3591.776
1973.604, 3528.567
1975.533, 3464.578
1977.461, 3400.884
1979.390, 3337.270
1981.318, 3273.656
1983.247, 3211.185
1985.175, 3150.239
1987.104, 3091.630
1989.032, 3034.183
1990.960, 2977.504
1992.889, 2918.744
1994.817, 2858.851
1996.746, 2808.817
1998.674, 2759.099
2000.603, 2698.708
2002.531, 2644.126
2004.460, 2597.346
2006.388, 2553.919
2008.317, 2511.889
2010.245, 2467.931
2012.174, 2426.927
2014.102, 2389.942
2016.031, 2351.772
2017.959, 2315.421
2019.887, 2289.101
2021.816, 2252.358
2023.744, 2197.727
2025.673, 2158.215
2027.601, 2127.876
2029.530, 2099.039
2031.458, 2067.855
2033.387, 2032.814
2035.315, 2005.493
2037.244, 1981.151
2039.172, 1949.363
2041.101, 1919.867
2043.029, 1895.560
2044.958, 1868.677
2046.886, 1842.448
2048.814, 1826.782
2050.743, 1807.495
2052.671, 1780.341
2054.600, 1751.917
2056.528, 1723.852
2058.457, 1697.353
2060.385, 1674.256
2062.314, 1655.240
2064.242, 1631.596
2066.171, 1606.629
2068.099, 1586.173
2070.028, 1568.286
2071.956, 1552.296
2073.885, 1535.185
2075.813, 1516.510
2077.741, 1495.595
2079.670, 1474.024
2081.598, 1452.122
2083.527, 1433.210
2085.455, 1417.084
2087.384, 1404.911
2089.312, 1390.230
2091.241, 1371.073
2093.169, 1354.700
2095.098, 1340.547
2097.026, 1328.337
2098.955, 1316.114
2100.883, 1303.360
2102.812, 1286.945
2104.740, 1270.959
2106.668, 1259.343
2108.597, 1247.506
2110.525, 1234.835
2112.454, 1223.200
2114.382, 1211.386
2116.311, 1198.293
2118.239, 1187.265
2120.168, 1178.092
2122.096, 1167.560
2124.025, 1157.818
2125.953, 1150.098
2127.882, 1139.951
2129.810, 1128.663
2131.739, 1120.243
2133.667, 1113.861
2135.595, 1109.338
2137.524, 1099.437
2139.452, 1087.257
2141.381, 1077.881
2143.309, 1069.575
2145.238, 1061.924
2147.166, 1056.678
2149.095, 1051.187
2151.023, 1041.579
2152.952, 1033.821
2154.880, 1027.864
2156.809, 1017.850
2158.737, 1009.293
2160.666, 1008.150
2162.594, 1003.783
2164.522, 996.7504
2166.451, 989.7477
2168.379, 982.5031
2170.308, 974.6076
2172.236, 967.7189
2174.165, 962.3273
2176.093, 959.8871
2178.022, 956.2155
2179.950, 950.4584
2181.879, 944.2177
2183.807, 937.8856
2185.736, 931.2769
2187.664, 926.9521
2189.593, 924.1866
2191.521, 919.7441
2193.449, 915.9336
2195.378, 913.9606
2197.306, 908.0536
2199.235, 900.4211
2201.163, 893.6708
2203.092, 890.5085
2205.020, 890.7832
2206.949, 886.4662
2208.877, 881.8364
2210.806, 880.0175
2212.734, 878.4464
2214.663, 876.4937
2216.591, 873.0362
2218.520, 869.3711
2220.448, 865.9203
2222.376, 865.3683
2224.305, 865.5400
2226.233, 864.6456
2228.162, 861.0386
2230.090, 855.8937
2232.019, 854.9189
2233.947, 853.4650
2235.876, 848.5022
2237.804, 849.0845
2239.733, 851.8516
2241.661, 851.4744
2243.590, 850.4675
2245.518, 849.4857
2247.447, 850.8519
2249.375, 853.0144
2251.303, 855.8155
2253.232, 855.8391
2255.160, 854.7484
2257.089, 855.2589
2259.017, 857.0140
2260.946, 859.8776
2262.874, 864.0919
2264.803, 866.3507
2266.731, 863.6744
2268.660, 866.6301
2270.588, 872.5005
2272.517, 875.2043
2274.445, 876.9088
2276.374, 878.0672
2278.302, 878.4423
2280.230, 878.0353
2282.159, 876.3554
2284.087, 882.7584
2286.016, 892.1510
2287.944, 893.6739
2289.873, 896.8024
2291.801, 902.4937
2293.730, 905.6743
2295.658, 909.0434
2297.587, 914.3051
2299.515, 916.0567
2301.444, 915.4862
2303.372, 913.1035
2305.301, 914.3014
2307.229, 918.2913
2309.157, 919.1542
2311.086, 919.7865
2313.014, 921.5373
2314.943, 921.8096
2316.871, 921.7682
2318.800, 922.7295
2320.728, 923.4854
2322.657, 924.3745
2324.585, 927.0112
2326.514, 928.9501
2328.442, 929.4467
2330.371, 927.0945
2332.299, 926.2939
2334.228, 930.9281
2336.156, 932.9541
2338.084, 933.5763
2340.013, 934.6874
2341.941, 937.2010
2343.870, 940.5635
2345.798, 941.6867
2347.727, 942.5264
2349.655, 943.7881
2351.584, 945.9881
2353.512, 947.4136
2355.441, 946.4105
2357.369, 949.8632
2359.298, 955.9641
2361.226, 961.6959
2363.155, 963.2665
2365.083, 961.9404
2367.011, 969.1142
2368.940, 972.7120
2370.868, 969.2103
2372.797, 972.0890
2374.725, 975.7400
2376.654, 975.2939
2378.582, 973.1749
2380.511, 972.1071
2382.439, 977.6418
2384.368, 980.5321
2386.296, 980.0453
2388.225, 978.4543
2390.153, 976.3012
2392.082, 974.0001
2394.010, 974.3020
2395.938, 974.4457
2397.867, 971.5008
2399.795, 971.6152
2401.724, 971.7672
2403.652, 968.1915
2405.581, 965.0911
2407.509, 962.6184
2409.438, 960.4877
2411.366, 957.3286
2413.295, 953.4552
2415.223, 951.7845
2417.152, 950.9060
2419.080, 950.2684
2421.009, 949.9730
2422.937, 949.6605
2424.865, 949.0751
2426.794, 948.0547
2428.722, 947.0526
2430.651, 946.5987
2432.579, 946.1995
2434.508, 945.8099
2436.436, 944.1229
2438.365, 948.1057
2440.293, 956.0292
2442.222, 956.6882
2444.150, 955.4196
2446.079, 954.3590
2448.007, 956.7864
2449.936, 959.3444
2451.864, 960.3925
2453.792, 960.3748
2455.721, 960.9998
2457.649, 964.2419
2459.578, 964.6400
2461.506, 964.3569
2463.435, 966.4717
2465.363, 969.1252
2467.292, 971.8687
2469.220, 974.6310
2471.149, 975.8873
2473.077, 975.8011
2475.006, 974.8357
2476.934, 974.7727
2478.863, 975.8693
2480.791, 977.7817
2482.719, 978.4308
2484.648, 977.1558
2486.576, 980.3190
2488.505, 983.1463
2490.433, 983.2262
2492.362, 981.9857
2494.290, 981.4041
2496.219, 982.6788
2498.147, 983.7147
2500.076, 985.7698
2502.004, 990.4451
2503.933, 992.3656
2505.861, 992.7505
2507.790, 993.1049
2509.718, 997.7716
2511.646, 1003.993
2513.575, 1004.391
2515.503, 1008.593
2517.432, 1015.556
2519.360, 1018.693
2521.289, 1024.364
2523.217, 1032.465
2525.146, 1038.865
2527.074, 1046.234
2529.003, 1055.173
2530.931, 1066.330
2532.860, 1074.719
2534.788, 1080.089
2536.717, 1093.279
2538.645, 1105.208
2540.573, 1112.601
2542.502, 1123.121
2544.430, 1133.058
2546.359, 1140.664
2548.287, 1151.522
2550.216, 1161.863
2552.144, 1169.391
2554.073, 1177.758
2556.001, 1185.944
2557.930, 1193.387
2559.858, 1198.795
2561.787, 1202.578
2563.715, 1205.130
2565.644, 1208.033
2567.572, 1209.428
2569.500, 1207.914
2571.429, 1213.441
2573.357, 1218.156
2575.286, 1215.499
2577.214, 1211.847
2579.143, 1208.195
2581.071, 1204.892
2583.000, 1202.236
2584.928, 1198.804
2586.857, 1192.784
2588.785, 1189.641
2590.714, 1185.686
2592.642, 1176.303
2594.571, 1167.215
2596.499, 1159.070
2598.427, 1152.731
2600.356, 1146.406
2602.284, 1138.187
2604.213, 1124.614
2606.141, 1113.904
2608.070, 1104.566
2609.998, 1095.170
2611.927, 1085.074
2613.855, 1074.258
2615.784, 1062.205
2617.712, 1054.839
2619.641, 1046.448
2621.569, 1031.172
2623.498, 1022.999
2625.426, 1015.343
2627.354, 1002.496
2629.283, 990.6482
2631.211, 979.3922
2633.140, 968.2111
2635.068, 952.6856
2636.997, 938.9899
2638.925, 930.8249
2640.854, 920.7488
2642.782, 910.0270
2644.711, 899.5577
2646.639, 887.7320
2648.568, 877.3728
2650.496, 869.3548
2652.425, 856.0261
2654.353, 843.9078
2656.281, 835.6161
2658.210, 828.3396
2660.138, 820.2278
2662.067, 810.8311
2663.995, 799.9167
2665.924, 792.9948
2667.852, 789.8297
2669.781, 781.2168
2671.709, 772.0208
2673.638, 764.0245
2675.566, 759.6127
2677.495, 754.7292
2679.423, 748.4514
2681.352, 740.2752
2683.280, 732.4067
2685.208, 725.0243
2687.137, 717.5723
2689.065, 711.6741
2690.994, 706.7404
2692.922, 701.8765
2694.851, 695.2558
2696.779, 689.0262
2698.708, 685.5950
2700.636, 677.8719
2702.565, 670.8604
2704.493, 668.3256
2706.422, 665.0126
2708.350, 658.6597
2710.279, 649.3333
2712.207, 647.9932
2714.135, 645.1742
2716.064, 638.5018
2717.992, 636.2308
2719.921, 634.2921
2721.849, 631.4103
2723.778, 627.4045
2725.706, 624.6898
2727.635, 621.9180
2729.563, 613.9453
2731.492, 610.5208
2733.420, 609.7797
2735.349, 607.4294
2737.277, 605.0818
2739.206, 601.5834
2741.134, 595.3039
2743.063, 590.0974
2744.991, 587.2070
2746.919, 587.5059
2748.848, 582.8292
2750.776, 577.6310
2752.705, 573.7523
2754.633, 571.9782
2756.562, 568.9336
2758.490, 565.0380
2760.419, 564.5071
2762.347, 561.5939
2764.276, 557.1082
2766.204, 553.6075
2768.133, 549.1422
2770.061, 545.5801
2771.990, 544.6989
2773.918, 541.5594
2775.846, 536.9535
2777.775, 531.9375
2779.703, 530.9839
2781.632, 528.0888
2783.560, 522.9545
2785.489, 522.0251
2787.417, 518.3687
2789.346, 512.6208
2791.274, 508.1410
2793.203, 503.8575
2795.131, 500.1190
2797.060, 497.9682
2798.988, 493.5524
2800.917, 488.0628
2802.845, 482.2994
2804.773, 482.2308
2806.702, 481.1547
2808.630, 477.2294
2810.559, 470.5013
2812.487, 465.3829
2814.416, 461.4903
2816.344, 457.3410
2818.273, 453.2346
2820.201, 449.0246
2822.130, 444.5524
2824.058, 438.8101
2825.987, 434.9066
2827.915, 432.9048
2829.844, 425.5812
2831.772, 423.0725
2833.700, 422.9454
2835.629, 415.9044
2837.557, 411.3144
2839.486, 407.8172
2841.414, 403.6740
2843.343, 399.9791
2845.271, 396.1078
2847.200, 391.7362
2849.128, 386.0822
2851.057, 381.4499
2852.985, 378.4283
2854.914, 377.9482
2856.842, 374.6948
2858.771, 370.0018
2860.699, 365.2707
2862.627, 360.2526
2864.556, 357.2884
2866.484, 356.4437
2868.413, 354.3366
2870.341, 350.2764
2872.270, 346.2054
2874.198, 344.8723
2876.127, 341.5628
2878.055, 337.4126
2879.984, 333.6087
2881.912, 334.0639
2883.841, 331.1182
2885.769, 325.2921
2887.698, 323.9594
2889.626, 320.6216
2891.554, 316.2810
2893.483, 312.8824
2895.411, 328.5901
2897.340, 327.0368
2899.268, 305.9272
2901.197, 309.4875
2903.125, 305.2118
2905.054, 296.6097
2906.982, 296.9005
2908.911, 294.0071
2910.839, 290.1235
2912.768, 287.0729
2914.696, 288.8185
2916.625, 287.3717
2918.553, 283.4122
2920.481, 280.5578
2922.410, 278.3260
2924.338, 275.8087
2926.267, 272.5094
2928.195, 269.9275
2930.124, 267.2617
2932.052, 265.0709
2933.981, 264.9520
2935.909, 261.7789
2937.838, 259.4534
2939.766, 260.0595
2941.695, 255.4173
2943.623, 251.5991
2945.552, 249.3968
2947.480, 247.1290
2949.408, 245.1466
2951.337, 243.3616
2953.265, 241.4658
2955.194, 237.0334
2957.122, 234.6978
2959.051, 234.1616
2960.979, 232.9823
2962.908, 230.4483
2964.836, 228.1711
2966.765, 227.0312
2968.693, 227.3157
2970.622, 224.7802
2972.550, 221.1717
2974.479, 220.3822
2976.407, 220.3420
2978.335, 218.2271
2980.264, 213.8329
2982.192, 213.1511
2984.121, 211.3887
2986.049, 209.0126
2987.978, 207.2954
2989.906, 206.9153
2991.835, 205.5309
2993.763, 203.0619
2995.692, 201.9157
2997.620, 198.6706
2999.549, 196.1340
3001.477, 195.9676
3003.406, 193.9206
3005.334, 191.0584
3007.262, 188.8339
3009.191, 189.1581
3011.119, 187.7930
3013.048, 186.2373
3014.976, 185.3137
3016.905, 185.6079
3018.833, 182.9126
3020.762, 179.7406
3022.690, 178.9198
3024.619, 177.5682
3026.547, 175.9214
3028.476, 174.2916
3030.404, 172.9597
3032.333, 171.8259
3034.261, 171.6913
3036.189, 171.9140
3038.118, 166.5417
3040.046, 165.5462
3041.975, 165.4874
3043.903, 162.1217
3045.832, 159.6899
3047.760, 158.7480
3049.689, 159.0028
3051.617, 159.8659
3053.546, 158.3078
3055.474, 155.4320
3057.403, 152.7671
3059.331, 153.7812
3061.260, 151.5024
3063.188, 148.8929
3065.116, 148.2221
3067.045, 149.0264
3068.973, 148.5728
3070.902, 146.4365
3072.830, 142.8966
3074.759, 142.5020
3076.687, 142.3370
3078.616, 141.8667
3080.544, 142.1043
3082.473, 139.9681
3084.401, 138.1213
3086.330, 137.6751
3088.258, 138.6163
3090.187, 138.0498
3092.115, 136.6782
3094.043, 135.0185
3095.972, 132.0877
3097.900, 130.5881
3099.829, 129.8505
3101.757, 129.0405
3103.686, 129.2707
3105.614, 129.0012
3107.543, 128.4105
3109.471, 128.0255
3111.400, 127.5136
3113.328, 125.8791
3115.257, 124.6167
3117.185, 126.3526
3119.114, 124.4548
3121.042, 123.1336
3122.970, 123.2325
3124.899, 123.0393
3126.827, 122.5834
3128.756, 121.6088
3130.684, 119.9365
3132.613, 116.6913
3134.541, 117.5376
3136.470, 117.5435
3138.398, 115.3575
3140.327, 116.5730
3142.255, 117.0802
3144.184, 116.0423
3146.112, 113.8915
3148.041, 113.9350
3149.969, 113.8506
3151.897, 114.0916
3153.826, 115.0851
3155.754, 114.8935
3157.683, 126.0527
3159.611, 128.8075
3161.540, 113.8379
3163.468, 112.3263
3165.397, 114.4157
3167.325, 114.7593
3169.254, 111.7305
3171.182, 111.2919
3173.111, 108.9268
3175.039, 108.3832
3176.968, 111.5164
3178.896, 108.9813
3180.824, 109.0132
3182.753, 109.8972
3184.681, 109.3169
3186.610, 108.8743
3188.538, 106.8288
3190.467, 105.9793
3192.395, 107.9545
3194.324, 107.1752
3196.252, 107.0705
3198.181, 106.8984
3200.109, 106.1106
3202.038, 106.8007
3203.966, 107.6867
3205.895, 106.7561
3207.823, 104.4076
3209.751, 107.3962
3211.680, 106.7074
3213.608, 110.6824
3215.537, 118.5570
3217.465, 110.4248
3219.394, 107.3313
3221.322, 107.3338
3223.251, 108.0223
3225.179, 108.4389
3227.108, 108.3052
3229.036, 107.3427
3230.965, 106.7970
3232.893, 109.6767
3234.822, 109.3059
3236.750, 108.1773
3238.678, 107.6070
3240.607, 108.1659
3242.535, 109.2564
3244.464, 110.8700
3246.392, 111.6189
3248.321, 110.2202
3250.249, 111.7841
3252.178, 112.3281
3254.106, 112.4745
3256.035, 113.2224
3257.963, 114.1715
3259.892, 114.7597
3261.820, 115.3740
3263.749, 115.8736
3265.677, 114.7975
3267.605, 117.6564
3269.534, 118.8289
3271.462, 118.3373
3273.391, 120.8055
3275.319, 120.9270
3277.248, 122.2028
3279.176, 124.5615
3281.105, 126.5529
3283.033, 128.2199
3284.962, 129.4274
3286.890, 131.2639
3288.819, 134.4067
3290.747, 138.5629
3292.676, 139.3965
3294.604, 139.8112
3296.532, 142.0540
3298.461, 147.2671
3300.389, 150.9204
3302.318, 154.0890
3304.246, 157.8679
3306.175, 162.8136
3308.103, 166.2327
3310.032, 168.4306
3311.960, 170.9124
3313.889, 174.9614
3315.817, 182.3740
3317.746, 187.6357
3319.674, 189.2814
3321.603, 191.6594
3323.531, 202.3061
3325.459, 204.8835
3327.388, 209.3269
3329.316, 216.5114
3331.245, 223.7357
3333.173, 226.1064
3335.102, 231.7253
3337.030, 237.8567
3338.959, 242.9064
3340.887, 247.8208
3342.816, 253.7213
3344.744, 258.3289
3346.673, 261.7344
3348.601, 264.9489
3350.530, 270.9365
3352.458, 274.1895
3354.386, 277.8775
3356.315, 283.0785
3358.243, 287.4715
3360.172, 292.5572
3362.100, 295.1429
3364.029, 297.6617
3365.957, 302.1251
3367.886, 302.3946
3369.814, 303.7223
3371.743, 305.0264
3373.671, 306.4528
3375.600, 309.5074
3377.528, 309.8972
3379.457, 307.9871
3381.385, 307.0007
3383.313, 308.4558
3385.242, 309.8453
3387.170, 308.1358
3389.099, 307.6837
3391.027, 306.5623
3392.956, 300.9494
3394.884, 298.4601
3396.813, 296.1685
3398.741, 295.8655
3400.670, 296.0749
3402.598, 291.6637
3404.527, 288.8041
3406.455, 287.5829
3408.384, 287.6635
3410.312, 288.1001
3412.240, 286.3938
3414.169, 286.7437
3416.097, 287.3119
3418.026, 287.3290
3419.954, 287.5098
3421.883, 292.5446
3423.811, 292.2677
3425.740, 294.2439
3427.668, 299.1718
3429.597, 302.8706
3431.525, 309.4400
3433.454, 311.8365
3435.382, 314.6862
3437.311, 319.4349
3439.239, 322.3221
3441.167, 326.4802
3443.096, 328.6666
3445.024, 332.7380
3446.953, 339.2761
3448.881, 342.5669
3450.810, 345.9420
3452.738, 353.6069
3454.667, 357.3871
3456.595, 355.3428
3458.524, 360.0750
##END=



