##NAMES=Aeschynite-(Y)
##LOCALITY=Hittero, Vest-Agder, Norway
##RRUFFID=R060312
##CHEMISTRY=(Y,Ca,Fe,Th)(Ti,Nb)_2_(O,OH)_6_
165.5085, 1632.518
167.4370, 1651.958
169.3655, 1662.791
171.2939, 1672.042
173.2224, 1678.371
175.1509, 1682.574
177.0793, 1680.314
179.0078, 1668.625
180.9363, 1651.752
182.8647, 1635.151
184.7932, 1618.757
186.7217, 1603.442
188.6501, 1588.491
190.5786, 1573.086
192.5071, 1561.583
194.4355, 1555.429
196.3640, 1550.833
198.2925, 1543.278
200.2209, 1531.023
202.1494, 1518.850
204.0779, 1507.993
206.0063, 1498.338
207.9348, 1490.049
209.8633, 1484.297
211.7917, 1479.745
213.7202, 1474.773
215.6487, 1468.109
217.5772, 1462.018
219.5056, 1457.241
221.4341, 1453.766
223.3626, 1450.474
225.2910, 1446.591
227.2195, 1442.757
229.1480, 1439.963
231.0764, 1438.632
233.0049, 1438.295
234.9334, 1439.094
236.8618, 1440.559
238.7903, 1440.958
240.7188, 1439.568
242.6472, 1437.415
244.5757, 1435.157
246.5042, 1432.584
248.4326, 1430.412
250.3611, 1428.950
252.2896, 1428.206
254.2180, 1428.002
256.1465, 1429.674
258.0750, 1430.584
260.0034, 1428.441
261.9319, 1422.229
263.8604, 1418.313
265.7888, 1418.605
267.7173, 1422.088
269.6458, 1424.313
271.5742, 1424.953
273.5027, 1425.309
275.4312, 1426.024
277.3596, 1427.365
279.2881, 1427.995
281.2166, 1427.058
283.1450, 1425.569
285.0735, 1425.480
287.0020, 1427.253
288.9304, 1429.499
290.8589, 1431.709
292.7874, 1433.913
294.7158, 1435.731
296.6443, 1436.537
298.5728, 1437.907
300.5012, 1441.215
302.4297, 1447.818
304.3582, 1453.418
306.2866, 1456.514
308.2151, 1456.810
310.1436, 1457.170
312.0720, 1457.924
314.0005, 1459.343
315.9290, 1461.540
317.8574, 1465.123
319.7859, 1468.917
321.7144, 1472.976
323.6428, 1476.964
325.5713, 1480.202
327.4998, 1481.798
329.4282, 1484.337
331.3567, 1488.946
333.2852, 1496.529
335.2136, 1502.490
337.1421, 1505.611
339.0706, 1507.182
340.9991, 1508.877
342.9275, 1511.637
344.8560, 1513.844
346.7845, 1514.762
348.7129, 1514.321
350.6414, 1514.286
352.5699, 1516.057
354.4983, 1517.396
356.4268, 1516.861
358.3553, 1512.630
360.2837, 1510.573
362.2122, 1511.400
364.1407, 1514.395
366.0691, 1518.083
367.9976, 1522.957
369.9261, 1527.759
371.8545, 1531.688
373.7830, 1533.670
375.7115, 1535.045
377.6399, 1537.050
379.5684, 1539.926
381.4969, 1543.514
383.4253, 1545.352
385.3538, 1544.904
387.2823, 1543.000
389.2107, 1541.450
391.1392, 1540.356
393.0677, 1538.503
394.9961, 1536.705
396.9246, 1535.618
398.8531, 1536.086
400.7815, 1535.806
402.7100, 1533.877
404.6385, 1531.953
406.5669, 1531.722
408.4954, 1533.238
410.4239, 1534.262
412.3523, 1534.133
414.2808, 1533.027
416.2093, 1531.572
418.1377, 1530.038
420.0662, 1529.227
421.9947, 1529.804
423.9231, 1532.087
425.8516, 1532.611
427.7801, 1530.309
429.7085, 1526.887
431.6370, 1524.480
433.5655, 1522.800
435.4939, 1521.773
437.4224, 1521.325
439.3509, 1521.474
441.2793, 1521.882
443.2078, 1523.084
445.1363, 1524.603
447.0647, 1526.969
448.9932, 1529.113
450.9217, 1529.113
452.8501, 1526.126
454.7786, 1523.375
456.7071, 1524.331
458.6355, 1528.466
460.5640, 1531.425
462.4925, 1531.530
464.4209, 1530.267
466.3494, 1529.082
468.2779, 1526.843
470.2063, 1525.766
472.1348, 1528.043
474.0633, 1533.127
475.9917, 1535.241
477.9202, 1531.518
479.8487, 1526.432
481.7771, 1523.049
483.7056, 1522.918
485.6341, 1522.824
487.5625, 1523.000
489.4910, 1522.994
491.4195, 1522.035
493.3479, 1519.304
495.2764, 1517.876
497.2049, 1519.305
499.1333, 1523.010
501.0618, 1525.032
502.9903, 1524.007
504.9187, 1523.135
506.8472, 1524.204
508.7757, 1527.225
510.7041, 1529.221
512.6326, 1529.100
514.5610, 1528.575
516.4895, 1529.692
518.4180, 1532.591
520.3464, 1534.036
522.2749, 1531.896
524.2034, 1528.215
526.1318, 1526.136
528.0603, 1527.028
529.9888, 1528.463
531.9172, 1530.424
533.8457, 1532.154
535.7742, 1532.837
537.7026, 1531.328
539.6311, 1530.542
541.5596, 1531.856
543.4880, 1535.508
545.4165, 1538.038
547.3450, 1539.280
549.2734, 1539.906
551.2019, 1540.270
553.1304, 1539.666
555.0588, 1539.680
556.9873, 1541.210
558.9158, 1543.908
560.8442, 1545.884
562.7727, 1546.145
564.7012, 1546.464
566.6296, 1547.101
568.5581, 1548.638
570.4866, 1550.635
572.4150, 1553.176
574.3435, 1555.600
576.2720, 1558.005
578.2004, 1560.149
580.1289, 1562.209
582.0574, 1564.040
583.9858, 1566.782
585.9144, 1570.730
587.8428, 1575.455
589.7713, 1579.377
591.6998, 1582.313
593.6282, 1584.352
595.5567, 1585.266
597.4852, 1584.888
599.4136, 1584.429
601.3421, 1584.417
603.2706, 1584.357
605.1990, 1583.790
607.1275, 1582.661
609.0560, 1581.637
610.9844, 1581.123
612.9129, 1581.023
614.8414, 1580.659
616.7698, 1579.440
618.6983, 1578.700
620.6268, 1579.281
622.5552, 1580.689
624.4837, 1580.848
626.4122, 1579.087
628.3406, 1577.028
630.2691, 1574.937
632.1976, 1572.741
634.1260, 1571.599
636.0545, 1573.691
637.9830, 1575.195
639.9114, 1573.566
641.8399, 1568.852
643.7684, 1565.727
645.6968, 1565.641
647.6253, 1566.804
649.5538, 1567.822
651.4822, 1568.070
653.4107, 1569.012
655.3392, 1571.353
657.2676, 1574.094
659.1961, 1575.411
661.1246, 1574.860
663.0530, 1575.215
664.9815, 1578.054
666.9100, 1581.921
668.8384, 1585.399
670.7669, 1587.257
672.6954, 1590.569
674.6238, 1596.320
676.5523, 1603.571
678.4808, 1610.381
680.4092, 1616.339
682.3377, 1622.445
684.2662, 1628.847
686.1946, 1635.558
688.1231, 1642.764
690.0516, 1650.918
691.9800, 1659.084
693.9085, 1666.977
695.8370, 1674.573
697.7654, 1682.036
699.6939, 1688.983
701.6224, 1696.259
703.5508, 1704.264
705.4793, 1712.892
707.4078, 1720.880
709.3362, 1727.711
711.2647, 1734.545
713.1932, 1742.329
715.1216, 1751.010
717.0501, 1758.855
718.9786, 1764.930
720.9070, 1770.926
722.8355, 1777.730
724.7640, 1785.483
726.6924, 1792.324
728.6209, 1797.665
730.5494, 1802.457
732.4778, 1807.303
734.4063, 1812.228
736.3348, 1816.918
738.2632, 1821.156
740.1917, 1825.229
742.1202, 1829.301
744.0486, 1833.597
745.9771, 1837.302
747.9056, 1840.336
749.8340, 1842.496
751.7625, 1844.284
753.6910, 1846.113
755.6194, 1847.530
757.5479, 1848.332
759.4764, 1848.153
761.4048, 1847.320
763.3333, 1845.496
765.2618, 1844.760
767.1902, 1846.448
769.1187, 1848.332
771.0472, 1848.461
772.9756, 1846.272
774.9041, 1843.794
776.8326, 1841.380
778.7610, 1838.265
780.6895, 1834.268
782.6180, 1829.677
784.5464, 1824.584
786.4749, 1819.119
788.4034, 1813.094
790.3318, 1806.593
792.2603, 1799.720
794.1888, 1792.235
796.1172, 1783.530
798.0457, 1774.085
799.9742, 1765.519
801.9026, 1758.349
803.8311, 1750.924
805.7596, 1742.591
807.6880, 1734.171
809.6165, 1725.738
811.5450, 1716.791
813.4734, 1706.666
815.4019, 1695.525
817.3304, 1686.093
819.2589, 1676.284
821.1873, 1664.508
823.1158, 1651.633
825.0443, 1638.197
826.9727, 1625.040
828.9012, 1611.827
830.8297, 1598.838
832.7581, 1585.322
834.6866, 1571.911
836.6151, 1556.714
838.5435, 1538.973
840.4720, 1519.284
842.4005, 1500.329
844.3289, 1483.236
846.2574, 1466.468
848.1859, 1448.878
850.1143, 1430.077
852.0428, 1411.227
853.9713, 1393.063
855.8997, 1374.993
857.8282, 1355.564
859.7567, 1335.020
861.6851, 1314.699
863.6136, 1294.600
865.5421, 1273.510
867.4705, 1252.521
869.3990, 1233.004
871.3275, 1212.967
873.2559, 1191.210
875.1844, 1167.551
877.1129, 1144.008
879.0413, 1121.848
880.9698, 1100.501
882.8983, 1079.961
884.8267, 1059.357
886.7552, 1037.744
888.6837, 1014.647
890.6121, 992.7034
892.5406, 973.0408
894.4691, 955.0244
896.3975, 936.9769
898.3260, 918.0010
900.2545, 899.4148
902.1829, 881.7302
904.1114, 864.5043
906.0399, 847.0726
907.9683, 829.1572
909.8968, 810.7377
911.8253, 791.4658
913.7537, 772.7021
915.6822, 755.2276
917.6107, 739.2105
919.5391, 723.6508
921.4676, 707.7595
923.3961, 691.5349
925.3245, 675.3974
927.2530, 660.2905
929.1815, 645.4539
931.1099, 630.9392
933.0384, 617.1560
934.9669, 604.8863
936.8953, 592.2615
938.8238, 579.2555
940.7523, 567.1241
942.6807, 556.0759
944.6092, 545.4813
946.5377, 534.8558
948.4661, 525.1745
950.3946, 516.1976
952.3231, 507.2315
954.2515, 497.9930
956.1800, 488.9043
958.1085, 479.7126
960.0369, 470.5800
961.9654, 462.3429
963.8939, 455.2520
965.8223, 448.5214
967.7508, 441.7718
969.6793, 435.0566
971.6077, 428.2689
973.5362, 421.5154
975.4647, 415.4269
977.3931, 410.6569
979.3216, 405.8707
981.2501, 400.3832
983.1785, 394.5409
985.1070, 389.3457
987.0355, 385.1261
988.9639, 380.8513
990.8924, 375.7375
992.8209, 370.2655
994.7493, 365.2514
996.6778, 361.0490
998.6063, 357.5708
1000.535, 354.0186
1002.463, 350.1873
1004.392, 346.1551
1006.320, 341.9360
1008.249, 337.6997
1010.177, 333.9831
1012.106, 330.7738
1014.034, 327.6597
1015.962, 324.4995
1017.891, 321.1870
1019.819, 317.3809
1021.748, 313.4245
1023.676, 310.0613
1025.605, 307.2846
1027.533, 304.7954
1029.462, 302.2621
1031.390, 299.5709
1033.319, 296.7322
1035.247, 293.7794
1037.176, 290.9308
1039.104, 288.4268
1041.032, 286.3807
1042.961, 284.4278
1044.889, 281.9701
1046.818, 279.3830
1048.746, 277.0773
1050.675, 275.2592
1052.603, 272.8905
1054.532, 269.8983
1056.460, 267.4754
1058.389, 266.1800
1060.317, 265.5672
1062.246, 264.3551
1064.174, 262.4280
1066.103, 260.3116
1068.031, 257.9474
1069.959, 255.4887
1071.888, 253.3302
1073.816, 251.6470
1075.745, 250.5845
1077.673, 249.8638
1079.602, 248.8819
1081.530, 247.5118
1083.459, 246.0430
1085.387, 244.7688
1087.316, 243.4629
1089.244, 242.5083
1091.173, 241.8996
1093.101, 241.2099
1095.030, 239.5883
1096.958, 236.9118
1098.887, 234.3200
1100.815, 232.0101
1102.744, 230.0223
1104.672, 228.5001
1106.600, 228.0470
1108.529, 227.4015
1110.457, 226.1517
1112.386, 224.3963
1114.314, 222.4525
1116.243, 220.4176
1118.171, 218.5652
1120.100, 216.8703
1122.028, 215.5196
1123.957, 214.5435
1125.885, 213.7888
1127.814, 212.9648
1129.742, 212.1144
1131.671, 211.2210
1133.599, 210.1138
1135.527, 208.7704
1137.456, 207.1510
1139.384, 204.9167
1141.313, 203.1904
1143.241, 202.5396
1145.170, 201.9677
1147.098, 200.9541
1149.027, 199.7393
1150.955, 198.7133
1152.884, 197.6102
1154.812, 196.1490
1156.741, 195.0113
1158.669, 194.4357
1160.598, 194.0312
1162.526, 193.5027
1164.454, 192.9192
1166.383, 192.6291
1168.311, 192.5032
1170.240, 192.2749
1172.168, 191.8374
1174.097, 191.2973
1176.025, 190.6879
1177.954, 190.2325
1179.882, 189.7352
1181.811, 188.9721
1183.739, 188.1000
1185.668, 187.2288
1187.596, 186.4602
1189.525, 185.7503
1191.453, 185.2585
1193.381, 184.9093
1195.310, 184.6302
1197.238, 184.1417
1199.167, 183.4441
1201.095, 182.8756
1203.024, 182.1393
1204.952, 181.2104
1206.881, 180.5108
1208.809, 180.1738
1210.738, 179.8134
1212.666, 179.6734
1214.595, 179.8410
1216.523, 179.5323
1218.452, 178.6697
1220.380, 177.9328
1222.308, 177.5614
1224.237, 177.3496
1226.165, 177.3487
1228.094, 177.4302
1230.022, 177.2864
1231.951, 176.7916
1233.879, 176.4556
1235.808, 176.5214
1237.736, 176.3286
1239.665, 175.4607
1241.593, 174.1643
1243.522, 173.6624
1245.450, 174.4753
1247.379, 174.9046
1249.307, 174.8078
1251.235, 174.6866
1253.164, 174.2938
1255.092, 173.4586
1257.021, 172.8804
1258.949, 173.0781
1260.878, 173.2743
1262.806, 172.7991
1264.735, 171.9395
1266.663, 171.5903
1268.592, 172.0579
1270.520, 172.3946
1272.449, 172.3764
1274.377, 172.1630
1276.306, 171.9084
1278.234, 171.5839
1280.162, 171.3777
1282.091, 171.4492
1284.019, 171.5059
1285.948, 171.3057
1287.876, 170.9185
1289.805, 170.8478
1291.733, 171.1701
1293.662, 171.2875
1295.590, 170.8582
1297.519, 170.4870
1299.447, 170.5249
1301.376, 170.7689
1303.304, 170.7823
1305.233, 170.3906
1307.161, 170.1163
1309.089, 170.2954
1311.018, 170.6815
1312.946, 170.9240
1314.875, 170.9631
1316.803, 170.8814
1318.732, 170.6172
1320.660, 170.3864
1322.589, 170.0581
1324.517, 169.7776
1326.446, 169.7963
1328.374, 170.2026
1330.303, 170.4542
1332.231, 170.4312
1334.160, 170.4136
1336.088, 170.5010
1338.016, 170.6173
1339.945, 170.8463
1341.873, 171.2245
1343.802, 171.4861
1345.730, 171.5811
1347.659, 171.5801
1349.587, 171.2888
1351.516, 170.8994
1353.444, 171.1297
1355.373, 172.3439
1357.301, 173.1410
1359.230, 172.9278
1361.158, 172.5722
1363.087, 172.6070
1365.015, 172.9444
1366.943, 173.0959
1368.872, 172.6292
1370.800, 172.6038
1372.729, 173.5691
1374.657, 174.6075
1376.586, 174.8974
1378.514, 174.5180
1380.443, 174.5718
1382.371, 175.4936
1384.300, 175.9381
1386.228, 174.9041
1388.157, 173.6942
1390.085, 173.6601
1392.014, 174.5874
1393.942, 175.0003
1395.870, 174.5073
1397.799, 174.1034
1399.727, 174.4730
1401.656, 174.8811
1403.584, 174.4339
1405.513, 173.0999
1407.441, 172.5332
1409.370, 173.3567
1411.298, 174.2276
1413.227, 174.7677
1415.155, 175.1217
1417.084, 175.5264
1419.012, 176.0379
1420.941, 176.3873
1422.869, 176.5833
1424.797, 176.6157
1426.726, 176.1487
1428.654, 175.6475
1430.583, 175.9274
1432.511, 177.2217
1434.440, 178.1190
1436.368, 178.4823
1438.297, 178.5661
1440.225, 178.1232
1442.154, 177.6819
1444.082, 177.8551
1446.011, 178.5112
1447.939, 179.1277
1449.868, 179.8106
1451.796, 180.2666
1453.724, 180.2122
1455.653, 179.9418
1457.581, 179.7634
1459.510, 179.6056
1461.438, 179.3355
1463.367, 178.6544
1465.295, 178.5915
1467.224, 180.0663
1469.152, 181.8543
1471.081, 182.8557
1473.009, 182.9669
1474.938, 182.5906
1476.866, 181.0099
1478.795, 180.1896
1480.723, 181.1612
1482.651, 182.5014
1484.580, 182.9869
1486.508, 182.6189
1488.437, 182.3754
1490.365, 182.4255
1492.294, 182.6064
1494.222, 182.8825
1496.151, 183.1404
1498.079, 183.3141
1500.008, 183.5362
1501.936, 183.9385
1503.865, 184.8491
1505.793, 185.2877
1507.722, 184.6070
1509.650, 183.8076
1511.578, 183.6019
1513.507, 183.8993
1515.435, 184.1441
1517.364, 184.1998
1519.292, 184.1289
1521.221, 183.9292
1523.149, 183.8668
1525.078, 183.9444
1527.006, 184.1172
1528.935, 184.5973
1530.863, 185.3453
1532.792, 185.4905
1534.720, 184.4961
1536.649, 183.8024
1538.577, 184.3920
1540.505, 185.2931
1542.434, 185.4482
1544.362, 184.9448
1546.291, 184.8780
1548.219, 185.5784
1550.148, 186.1950
1552.076, 186.5232
1554.005, 186.5667
1555.933, 186.1572
1557.862, 185.4254
1559.790, 185.0816
1561.719, 185.2959
1563.647, 185.3821
1565.576, 185.1275
1567.504, 184.8869
1569.432, 184.7080
1571.361, 184.6491
1573.289, 184.9096
1575.218, 185.6492
1577.146, 186.4479
1579.075, 187.8328
1581.003, 188.4543
1582.932, 187.1960
1584.860, 185.5636
1586.789, 185.2521
1588.717, 186.2744
1590.646, 186.8992
1592.574, 186.5223
1594.503, 186.5187
1596.431, 187.2541
1598.359, 188.1135
1600.288, 188.9936
1602.216, 189.7246
1604.145, 189.6368
1606.073, 188.0332
1608.002, 187.6391
1609.930, 189.7576
1611.859, 191.4157
1613.787, 191.2303
1615.716, 190.4028
1617.644, 190.2940
1619.573, 190.8865
1621.501, 191.3737
1623.430, 191.9256
1625.358, 192.1026
1627.286, 191.1277
1629.215, 190.4626
1631.143, 191.3789
1633.072, 193.1502
1635.000, 194.0878
1636.929, 194.0969
1638.857, 194.1358
1640.786, 194.2443
1642.714, 194.4046
1644.643, 194.4531
1646.571, 194.6828
1648.500, 195.5522
1650.428, 196.8731
1652.357, 197.7497
1654.285, 198.1612
1656.214, 198.1786
1658.142, 197.3310
1660.070, 196.7010
1661.999, 196.9864
1663.927, 197.6829
1665.856, 198.0108
1667.784, 198.0305
1669.713, 198.5056
1671.641, 199.7482
1673.570, 200.7451
1675.498, 200.8215
1677.427, 200.9962
1679.355, 202.0303
1681.284, 203.5565
1683.212, 204.9068
1685.141, 206.0722
1687.069, 206.8616
1688.997, 206.9504
1690.926, 207.2508
1692.854, 208.4278
1694.783, 209.6048
1696.711, 209.9849
1698.640, 209.8537
1700.568, 209.9106
1702.497, 210.1608
1704.425, 210.6869
1706.354, 211.6538
1708.282, 212.6254
1710.211, 213.6660
1712.139, 214.4624
1714.068, 214.4414
1715.996, 213.9607
1717.924, 214.2858
1719.853, 215.6240
1721.781, 216.7385
1723.710, 217.1872
1725.638, 217.7393
1727.567, 218.8376
1729.495, 220.0348
1731.424, 220.6824
1733.352, 220.9792
1735.281, 221.9460
1737.209, 223.8238
1739.138, 225.2247
1741.066, 225.7636
1742.995, 226.0956
1744.923, 226.3918
1746.851, 226.7527
1748.780, 227.3047
1750.708, 228.0182
1752.637, 228.6763
1754.565, 229.1655
1756.494, 230.0586
1758.422, 231.9337
1760.351, 233.4635
1762.279, 233.8441
1764.208, 233.8745
1766.136, 234.4192
1768.065, 235.3195
1769.993, 235.7453
1771.922, 235.4995
1773.850, 235.8072
1775.778, 237.5545
1777.707, 238.8327
1779.635, 238.0525
1781.564, 237.4452
1783.492, 239.5781
1785.421, 243.4330
1787.349, 245.5809
1789.278, 245.6475
1791.206, 245.8094
1793.135, 245.8033
1795.063, 246.3898
1796.992, 248.4600
1798.920, 250.4562
1800.849, 251.1850
1802.777, 251.0843
1804.705, 250.9985
1806.634, 250.8732
1808.562, 251.1929
1810.491, 252.5320
1812.419, 253.4023
1814.348, 252.8706
1816.276, 252.6973
1818.205, 253.9572
1820.133, 255.9759
1822.062, 258.0742
1823.990, 260.2126
1825.919, 261.2760
1827.847, 260.6344
1829.776, 260.2593
1831.704, 260.0833
1833.632, 260.4645
1835.561, 262.1408
1837.489, 263.9055
1839.418, 264.4510
1841.346, 264.1687
1843.275, 264.4679
1845.203, 265.3762
1847.132, 266.6311
1849.060, 268.4943
1850.989, 270.1089
1852.917, 271.6616
1854.846, 272.4536
1856.774, 271.3422
1858.703, 269.7147
1860.631, 269.8121
1862.559, 271.4200
1864.488, 272.7328
1866.416, 273.7120
1868.345, 274.2040
1870.273, 273.7727
1872.202, 273.6731
1874.130, 274.7678
1876.059, 276.0876
1877.987, 276.8577
1879.916, 277.2901
1881.844, 277.7949
1883.773, 278.3574
1885.701, 278.8343
1887.630, 279.1689
1889.558, 279.4470
1891.486, 279.5680
1893.415, 279.7730
1895.343, 280.1357
1897.272, 280.6979
1899.200, 281.6507
1901.129, 282.8752
1903.057, 283.9666
1904.986, 285.0523
1906.914, 285.4607
1908.843, 284.3113
1910.771, 283.8326
1912.700, 284.5842
1914.628, 285.7422
1916.557, 287.3662
1918.485, 288.7656
1920.413, 288.6663
1922.342, 287.4622
1924.270, 287.6169
1926.199, 289.7490
1928.127, 291.2961
1930.056, 292.0675
1931.984, 292.5706
1933.913, 292.6831
1935.841, 292.8124
1937.770, 293.2893
1939.698, 293.7649
1941.627, 293.7780
1943.555, 293.4188
1945.484, 293.1272
1947.412, 292.9229
1949.340, 292.6099
1951.269, 292.0030
1953.197, 291.8924
1955.126, 293.0153
1957.054, 293.9698
1958.983, 293.5656
1960.911, 292.9802
1962.840, 293.6165
1964.768, 295.0128
1966.697, 295.9028
1968.625, 296.2428
1970.554, 296.2818
1972.482, 295.5757
1974.411, 295.5899
1976.339, 297.4617
1978.267, 298.9019
1980.196, 298.7323
1982.124, 298.1267
1984.053, 297.9663
1985.981, 298.1997
1987.910, 298.8149
1989.838, 299.8350
1991.767, 300.2833
1993.695, 299.6525
1995.624, 299.8101
1997.552, 301.9816
1999.481, 303.0931
2001.409, 301.1783
2003.338, 299.3105
2005.266, 299.3887
2007.194, 300.3212
2009.123, 300.8816
2011.051, 301.1174
2012.980, 301.0625
2014.908, 300.7068
2016.837, 300.8400
2018.765, 301.6691
2020.694, 302.5880
2022.622, 303.8350
2024.551, 304.6220
2026.479, 304.1554
2028.408, 303.6248
2030.336, 304.1044
2032.265, 305.0800
2034.193, 305.7516
2036.121, 306.0800
2038.050, 305.7645
2039.978, 304.1160
2041.907, 303.7191
2043.835, 305.5245
2045.764, 307.0276
2047.692, 307.6089
2049.621, 308.2717
2051.549, 309.7493
2053.478, 311.1638
2055.406, 311.6411
2057.334, 311.5439
2059.263, 311.4388
2061.191, 311.3497
2063.120, 311.6993
2065.048, 312.5547
2066.977, 312.9720
2068.906, 312.5868
2070.834, 312.4716
2072.762, 313.1577
2074.691, 313.9206
2076.619, 314.5879
2078.548, 315.1222
2080.476, 315.4946
2082.405, 315.7162
2084.333, 315.7261
2086.262, 315.5723
2088.190, 315.6203
2090.119, 315.8604
2092.047, 316.4311
2093.976, 317.7094
2095.904, 318.2234
2097.833, 316.8170
2099.761, 316.1266
2101.689, 318.2005
2103.618, 319.9301
2105.546, 318.3768
2107.475, 316.0361
2109.403, 316.2032
2111.332, 317.9642
2113.260, 318.7049
2115.189, 318.4576
2117.117, 318.5808
2119.046, 319.3757
2120.974, 319.7165
2122.903, 319.1307
2124.831, 318.6129
2126.760, 318.3813
2128.688, 318.1314
2130.616, 317.6494
2132.545, 317.2133
2134.473, 317.2543
2136.402, 317.3890
2138.330, 316.8980
2140.259, 315.9385
2142.187, 315.1245
2144.116, 314.4449
2146.044, 313.8253
2147.973, 313.3669
2149.901, 312.3659
2151.830, 310.0736
2153.758, 308.5913
2155.687, 309.4652
2157.615, 310.0545
2159.543, 308.5851
2161.472, 306.8300
2163.400, 306.3238
2165.329, 306.3940
2167.257, 306.0135
2169.186, 305.2679
2171.114, 304.7885
2173.043, 304.5972
2174.971, 303.8476
2176.900, 302.4565
2178.828, 301.3807
2180.757, 300.9078
2182.685, 300.3957
2184.614, 299.5090
2186.542, 298.6899
2188.470, 298.0017
2190.399, 297.4656
2192.327, 297.5298
2194.256, 297.3923
2196.184, 295.7243
2198.113, 293.2861
2200.041, 291.9769
2201.970, 291.7269
2203.898, 291.3434
2205.827, 290.8454
2207.755, 289.6514
2209.684, 287.4556
2211.612, 285.8999
2213.541, 285.7775
2215.469, 285.0850
2217.397, 282.2785
2219.326, 280.0453
2221.254, 280.1429
2223.183, 280.6075
2225.111, 279.9701
2227.040, 278.8663
2228.968, 278.0951
2230.897, 277.4827
2232.825, 276.5283
2234.754, 275.2912
2236.682, 274.6982
2238.611, 274.7944
2240.539, 273.3046
2242.468, 269.6928
2244.396, 266.8084
2246.324, 265.2848
2248.253, 264.0847
2250.181, 263.2255
2252.110, 262.2353
2254.038, 260.5963
2255.967, 259.2487
2257.895, 259.1444
2259.824, 259.2393
2261.752, 258.4969
2263.681, 257.2764
2265.609, 256.0588
2267.538, 254.8750
2269.466, 254.0152
2271.395, 253.3545
2273.323, 251.7540
2275.251, 249.0642
2277.180, 247.4375
2279.108, 247.4864
2281.037, 247.3242
2282.965, 246.8866
2284.894, 245.9568
2286.822, 244.0740
2288.751, 242.3011
2290.679, 241.0861
2292.608, 239.9455
2294.536, 238.4725
2296.465, 237.1177
2298.393, 236.3320
2300.322, 235.8220
2302.250, 235.4168
2304.178, 234.9222
2306.107, 233.7785
2308.035, 232.0989
2309.964, 230.6063
2311.892, 229.2985
2313.821, 228.2469
2315.749, 227.6251
2317.678, 226.4300
2319.606, 224.1711
2321.535, 223.0277
2323.463, 224.1899
2325.392, 224.2300
2327.320, 221.2288
2329.249, 218.5280
2331.177, 217.7813
2333.105, 217.4831
2335.034, 216.9065
2336.962, 216.2288
2338.891, 215.7071
2340.819, 215.0411
2342.748, 213.5271
2344.676, 211.7214
2346.605, 211.1243
2348.533, 211.2282
2350.462, 210.0847
2352.390, 207.9222
2354.319, 206.7695
2356.247, 206.8550
2358.176, 206.3488
2360.104, 204.7968
2362.032, 203.5499
2363.961, 202.7017
2365.889, 201.9399
2367.818, 201.3160
2369.746, 200.5851
2371.675, 199.4867
2373.603, 198.7303
2375.532, 198.9594
2377.460, 199.1371
2379.389, 198.8657
2381.317, 198.0991
2383.246, 196.2167
2385.174, 194.3243
2387.103, 193.8299
2389.031, 193.9014
2390.959, 193.3186
2392.888, 192.2821
2394.816, 191.3147
2396.745, 190.3563
2398.673, 188.8938
2400.602, 187.0929
2402.530, 186.5034
2404.459, 187.3844
2406.387, 187.5839
2408.316, 186.9085
2410.244, 185.9608
2412.173, 184.5721
2414.101, 183.3623
2416.030, 182.3857
2417.958, 181.6357
2419.886, 181.0995
2421.815, 180.8522
2423.743, 181.1326
2425.672, 181.3909
2427.600, 181.6742
2429.529, 181.5435
2431.457, 180.5747
2433.386, 179.3632
2435.314, 177.8293
2437.243, 176.7476
2439.171, 177.4442
2441.100, 178.3858
2443.028, 177.5666
2444.957, 175.9989
2446.885, 175.3996
2448.813, 175.3155
2450.742, 174.5858
2452.670, 173.4029
2454.599, 172.5199
2456.527, 171.9764
2458.456, 172.0536
2460.384, 172.7099
2462.313, 172.7566
2464.241, 172.1076
2466.170, 171.4250
2468.098, 170.6664
2470.027, 170.1059
2471.955, 169.9115
2473.884, 169.4970
2475.812, 168.6293
2477.740, 168.0665
2479.669, 168.1670
2481.597, 167.9254
2483.526, 166.9444
2485.454, 166.0044
2487.383, 165.3864
2489.311, 164.9297
2491.240, 164.5626
2493.168, 164.3710
2495.097, 164.8322
2497.025, 164.8918
2498.954, 163.3153
2500.882, 161.7298
2502.811, 161.1927
2504.739, 161.2106
2506.667, 161.8222
2508.596, 162.2854
2510.524, 161.4551
2512.453, 160.1598
2514.381, 159.6644
2516.310, 159.6425
2518.238, 159.6059
2520.167, 159.4523
2522.095, 158.5984
2524.024, 157.4536
2525.952, 157.5827
2527.881, 158.6291
2529.809, 158.5226
2531.738, 157.3346
2533.666, 156.8698
2535.594, 157.1343
2537.523, 156.4648
2539.451, 154.8779
2541.380, 154.3457
2543.308, 155.0956
2545.237, 155.4831
2547.165, 155.3575
2549.094, 154.8469
2551.022, 153.5554
2552.951, 153.0667
2554.879, 153.7497
2556.808, 154.0068
2558.736, 153.5634
2560.665, 152.9082
2562.593, 151.8343
2564.521, 151.3347
2566.450, 152.4541
2568.378, 152.7374
2570.307, 150.9190
2572.235, 149.6216
2574.164, 149.4295
2576.092, 149.7404
2578.021, 150.8206
2579.949, 151.4926
2581.878, 150.9924
2583.806, 150.3952
2585.735, 150.0261
2587.663, 149.8663
2589.592, 150.1374
2591.520, 150.2917
2593.448, 149.9898
2595.377, 149.5762
2597.305, 149.0121
2599.234, 148.7224
2601.162, 149.5301
2603.091, 150.1017
2605.019, 148.8791
2606.948, 147.5394
2608.876, 147.8266
2610.805, 148.3665
2612.733, 147.7012
2614.662, 146.9651
2616.590, 147.5339
2618.519, 148.4529
2620.447, 148.5645
2622.375, 148.3471
2624.304, 148.5345
2626.232, 148.6895
2628.161, 147.8126
2630.089, 146.8445
2632.018, 147.5001
2633.946, 148.6928
2635.875, 148.5844
2637.803, 147.7193
2639.732, 146.9455
2641.660, 146.2988
2643.589, 145.7227
2645.517, 145.3982
2647.446, 146.0908
2649.374, 147.0934
2651.302, 146.4314
2653.231, 144.9011
2655.159, 144.8179
2657.088, 145.6644
2659.016, 145.8318
2660.945, 145.5767
2662.873, 145.6536
2664.802, 145.9190
2666.730, 145.8839
2668.659, 145.6404
2670.587, 145.4693
2672.516, 145.3924
2674.444, 145.6032
2676.373, 145.9661
2678.301, 145.8072
2680.229, 145.3943
2682.158, 146.1066
2684.086, 147.6001
2686.015, 148.2561
2687.943, 148.0975
2689.872, 146.6981
2691.800, 144.6154
2693.729, 144.4865
2695.657, 145.8155
2697.586, 145.8196
2699.514, 144.8186
2701.443, 144.6710
2703.371, 145.2549
2705.300, 145.8247
2707.228, 146.3114
2709.156, 146.2880
2711.085, 145.8777
2713.013, 145.8223
2714.942, 146.0034
2716.870, 145.6350
2718.799, 144.9308
2720.727, 145.4972
2722.656, 146.8917
2724.584, 147.3489
2726.513, 147.0375
2728.441, 146.6204
2730.370, 146.1746
2732.298, 146.0306
2734.227, 146.1603
2736.155, 146.5829
2738.083, 147.1539
2740.012, 147.5125
2741.940, 147.6089
2743.869, 146.9651
2745.797, 146.0239
2747.726, 146.4462
2749.654, 147.7366
2751.583, 148.4349
2753.511, 148.7007
2755.440, 149.0662
2757.368, 149.2458
2759.297, 148.0992
2761.225, 146.4841
2763.154, 146.5626
2765.082, 147.6249
2767.010, 148.5085
2768.939, 149.0630
2770.867, 148.8821
2772.796, 148.3100
2774.724, 147.7491
2776.653, 147.3520
2778.581, 147.4791
2780.510, 147.8298
2782.438, 148.0402
2784.367, 148.1815
2786.295, 148.3449
2788.224, 148.4909
2790.152, 148.4305
2792.081, 148.4835
2794.009, 149.1578
2795.938, 149.9398
2797.866, 150.4333
2799.794, 150.7287
2801.723, 150.9913
2803.651, 150.9599
2805.580, 149.9967
2807.508, 149.2144
2809.437, 149.4776
2811.365, 149.9918
2813.294, 150.6152
2815.222, 150.8642
2817.151, 150.0543
2819.079, 149.4070
2821.008, 149.3070
2822.936, 149.7307
2824.865, 151.3465
2826.793, 152.3142
2828.721, 151.2427
2830.650, 150.4743
2832.578, 151.1382
2834.507, 151.0862
2836.435, 149.0705
2838.364, 148.2928
2840.292, 150.8302
2842.221, 152.6043
2844.149, 152.7762
2846.078, 152.7152
2848.006, 152.4568
2849.935, 152.4959
2851.863, 153.0565
2853.792, 153.1907
2855.720, 152.1862
2857.648, 152.6494
2859.577, 154.9233
2861.505, 155.0927
2863.434, 152.8862
2865.362, 152.1554
2867.291, 153.2099
2869.219, 154.5071
2871.148, 156.0404
2873.076, 156.2173
2875.005, 155.3038
2876.933, 154.5262
2878.862, 154.0637
2880.790, 154.7716
2882.719, 156.1629
2884.647, 156.3974
2886.575, 156.1613
2888.504, 157.3725
2890.432, 159.0269
2892.361, 159.8708
2894.289, 159.8462
2896.218, 157.9768
2898.146, 156.1569
2900.075, 156.9637
2902.003, 158.2361
2903.932, 158.0000
2905.860, 157.6877
2907.789, 158.5212
2909.717, 159.3799
2911.646, 159.4870
2913.574, 159.7851
2915.502, 161.1315
2917.431, 162.1226
2919.359, 161.7097
2921.288, 161.9074
2923.216, 163.4715
2925.145, 164.6332
2927.073, 165.0067
2929.002, 164.9180
2930.930, 163.9365
2932.859, 163.5197
2934.787, 163.7294
2936.716, 164.2881
2938.644, 165.1926
2940.573, 166.1512
2942.501, 167.1577
2944.429, 167.7720
2946.358, 168.0277
2948.286, 168.5608
2950.215, 169.1792
2952.143, 168.9327
2954.072, 168.3471
2956.000, 168.8554
2957.929, 169.9377
2959.857, 170.8020
2961.786, 171.4247
2963.714, 171.5728
2965.643, 171.7310
2967.571, 172.5932
2969.500, 173.3924
2971.428, 173.1171
2973.356, 173.2722
2975.285, 175.1377
2977.213, 176.8212
2979.142, 177.3252
2981.070, 177.9347
2982.999, 179.0862
2984.927, 179.9237
2986.856, 180.2126
2988.784, 180.3837
2990.713, 180.2520
2992.641, 180.6256
2994.570, 181.4993
2996.498, 183.1960
2998.427, 185.6323
3000.355, 187.0281
3002.283, 187.4523
3004.212, 187.2185
3006.140, 186.8754
3008.069, 189.1435
3009.997, 192.2956
3011.926, 193.1646
3013.854, 192.8857
3015.783, 192.3053
3017.711, 192.3072
3019.640, 194.0154
3021.568, 196.0683
3023.497, 198.2824
3025.425, 199.4208
3027.354, 197.3202
3029.282, 196.8779
3031.210, 200.1729
3033.139, 202.8180
3035.067, 203.2686
3036.996, 203.7819
3038.924, 204.4226
3040.853, 205.6910
3042.781, 207.6177
3044.710, 209.1631
3046.638, 210.2739
3048.567, 210.8456
3050.495, 211.0914
3052.424, 212.0621
3054.352, 213.4999
3056.281, 215.0359
3058.209, 216.4835
3060.137, 217.1653
3062.066, 218.0813
3063.994, 220.7843
3065.923, 222.9379
3067.851, 222.2713
3069.780, 221.9469
3071.708, 223.5036
3073.637, 225.1266
3075.565, 226.5073
3077.494, 227.7539
3079.422, 228.8072
3081.351, 229.9165
3083.279, 231.0615
3085.208, 232.3813
3087.136, 233.8762
3089.064, 235.6104
3090.993, 237.4624
3092.921, 238.6652
3094.850, 239.7617
3096.778, 242.1965
3098.707, 244.7508
3100.635, 245.5863
3102.564, 246.4006
3104.492, 249.1666
3106.421, 251.4351
3108.349, 251.4946
3110.278, 251.9360
3112.206, 253.8802
3114.135, 255.7683
3116.063, 257.3447
3117.991, 259.4575
3119.920, 262.3334
3121.848, 264.2592
3123.777, 265.2573
3125.705, 266.5821
3127.634, 268.3608
3129.562, 271.4243
3131.491, 274.7409
3133.419, 276.3854
3135.348, 277.3484
3137.276, 278.1950
3139.205, 279.5739
3141.133, 282.3062
3143.062, 285.0853
3144.990, 287.3780
3146.918, 289.6930
3148.847, 292.0892
3150.775, 294.6991
3152.704, 297.7318
3154.632, 300.0771
3156.561, 301.7533
3158.489, 303.1181
3160.418, 304.4065
3162.346, 306.3472
3164.275, 308.8670
3166.203, 312.3054
3168.132, 315.6779
3170.060, 317.8964
3171.989, 319.9009
3173.917, 322.7904
3175.845, 324.7384
3177.774, 324.5760
3179.702, 325.5815
3181.631, 328.9102
3183.559, 332.7113
3185.488, 336.9399
3187.416, 340.0446
3189.345, 342.1586
3191.273, 344.9745
3193.202, 348.0076
3195.130, 349.7605
3197.059, 351.1081
3198.987, 353.0066
3200.916, 355.2845
3202.844, 357.9510
3204.772, 360.8422
3206.701, 364.0470
3208.629, 367.0938
3210.558, 369.8960
3212.486, 372.3493
3214.415, 374.3838
3216.343, 376.5440
3218.272, 378.8811
3220.200, 381.7802
3222.129, 385.0124
3224.057, 388.2044
3225.986, 391.1700
3227.914, 393.2389
3229.843, 395.7131
3231.771, 400.6961
3233.699, 404.3078
3235.628, 404.9286
3237.556, 405.4573
3239.485, 405.8271
3241.413, 409.4916
3243.342, 416.6560
3245.270, 420.1265
3247.199, 420.7437
3249.127, 422.4254
3251.056, 425.3820
3252.984, 431.2892
3254.913, 437.0333
3256.841, 439.4598
3258.770, 441.4383
3260.698, 444.2924
3262.626, 447.5811
3264.555, 451.4580
3266.483, 454.5578
3268.412, 456.3719
3270.340, 459.5251
3272.269, 463.6910
3274.197, 466.6346
3276.126, 469.0647
3278.054, 472.4310
3279.983, 476.2388
3281.911, 480.0780
3283.840, 483.9872
3285.768, 487.8725
3287.697, 492.0748
3289.625, 496.6837
3291.553, 501.2837
3293.482, 505.8021
3295.410, 509.2505
3297.339, 511.9907
3299.267, 517.6628
3301.196, 524.1531
3303.124, 527.1359
3305.053, 529.4824
3306.981, 533.6707
3308.910, 538.9362
3310.838, 545.8264
3312.767, 551.3082
3314.695, 554.1014
3316.624, 556.1008
3318.552, 557.4726
3320.480, 561.6462
3322.409, 567.8795
3324.337, 573.3017
3326.266, 578.4039
3328.194, 584.2971
3330.123, 589.6027
3332.051, 592.5020
3333.980, 595.9549
3335.908, 600.8160
3337.837, 606.3674
3339.765, 612.9359
3341.694, 617.5583
3343.622, 620.3705
3345.551, 621.0361
3347.479, 621.9039
3349.407, 627.9562
3351.336, 635.7961
3353.264, 643.4642
3355.193, 649.3582
3357.121, 650.6442
3359.050, 654.3857
3360.978, 662.0507
3362.907, 666.8573
3364.835, 668.7184
3366.764, 672.4789
3368.692, 677.4879
3370.621, 681.6022
3372.549, 686.2980
3374.478, 693.5309
3376.406, 701.0262
3378.334, 708.3036
3380.263, 713.5854
3382.191, 715.7455
3384.120, 719.7355
3386.048, 725.7097
3387.977, 731.9013
3389.905, 737.8021
3391.834, 742.0079
3393.762, 745.9006
3395.691, 750.4557
3397.619, 756.2288
3399.548, 764.9854
3401.476, 771.7049
3403.405, 775.4232
3405.333, 779.4446
3407.261, 784.1385
3409.190, 791.1390
3411.118, 799.3240
3413.047, 807.2988
3414.975, 813.8753
3416.904, 816.3211
3418.832, 820.6952
3420.761, 830.1077
3422.689, 837.2934
3424.618, 840.8304
3426.546, 846.5318
3428.475, 853.9398
3430.403, 860.1703
3432.332, 865.5393
3434.260, 869.5333
3436.188, 874.3688
3438.117, 882.0567
3440.045, 888.8936
3441.974, 893.1306
3443.902, 898.8301
3445.831, 906.0162
3447.759, 912.3308
3449.688, 918.0938
3451.616, 923.6146
3453.545, 929.6091
3455.473, 936.6249
3457.402, 944.2501
3459.330, 953.6102
3461.259, 960.3486
3463.187, 964.1817
3465.115, 969.9545
3467.044, 976.8658
3468.972, 979.3207
3470.901, 981.9571
3472.829, 991.2357
3474.758, 1000.652
3476.686, 1006.606
3478.615, 1011.627
3480.543, 1015.996
3482.472, 1019.936
3484.400, 1023.722
3486.329, 1029.870
3488.257, 1036.141
3490.186, 1038.299
3492.114, 1040.661
3494.042, 1046.090
3495.971, 1051.842
3497.899, 1057.021
3499.828, 1063.173
3501.756, 1070.039
3503.685, 1076.330
3505.613, 1081.240
3507.542, 1082.784
3509.470, 1083.384
3511.399, 1084.135
3513.327, 1086.202
3515.256, 1090.496
3517.184, 1095.291
3519.113, 1100.485
3521.041, 1105.660
3522.969, 1110.118
3524.898, 1111.589
3526.826, 1112.961
3528.755, 1116.279
3530.683, 1119.615
3532.612, 1122.551
3534.540, 1125.400
3536.469, 1127.979
3538.397, 1128.797
3540.326, 1128.456
3542.254, 1128.002
3544.183, 1127.065
3546.111, 1123.882
3548.040, 1123.943
3549.968, 1128.451
3551.896, 1131.218
3553.825, 1132.365
3555.753, 1136.743
3557.682, 1141.071
3559.610, 1140.475
3561.539, 1139.606
3563.467, 1141.013
3565.396, 1142.043
3567.324, 1142.053
3569.253, 1143.898
3571.181, 1146.589
3573.110, 1145.240
3575.038, 1143.835
3576.967, 1147.333
3578.895, 1150.908
3580.823, 1153.255
3582.752, 1154.530
3584.680, 1154.840
3586.609, 1154.321
3588.537, 1153.959
3590.466, 1156.127
3592.394, 1158.591
3594.323, 1159.884
3596.251, 1160.838
3598.180, 1161.361
3600.108, 1163.026
3602.037, 1165.311
3603.965, 1165.320
3605.894, 1164.686
3607.822, 1165.931
3609.750, 1166.728
3611.679, 1165.941
3613.607, 1164.553
3615.536, 1162.776
3617.464, 1166.523
3619.393, 1172.540
3621.321, 1172.840
3623.250, 1172.077
3625.178, 1173.923
3627.107, 1174.176
3629.035, 1171.033
3630.964, 1171.193
3632.892, 1173.709
3634.821, 1172.918
3636.749, 1171.415
3638.677, 1172.650
3640.606, 1173.421
3642.534, 1171.654
3644.463, 1170.823
3646.391, 1170.896
3648.320, 1170.557
3650.248, 1170.211
3652.177, 1170.887
3654.105, 1171.766
3656.034, 1173.979
3657.962, 1171.967
3659.891, 1165.325
3661.819, 1165.537
3663.748, 1168.613
3665.676, 1161.691
3667.604, 1154.835
3669.533, 1156.647
3671.461, 1157.965
3673.390, 1157.224
3675.318, 1155.895
3677.247, 1153.828
3679.175, 1148.622
3681.104, 1143.841
3683.032, 1143.525
3684.961, 1142.342
3686.889, 1138.267
3688.818, 1138.145
3690.746, 1140.747
3692.675, 1135.887
3694.603, 1129.587
3696.531, 1128.494
3698.460, 1128.504
3700.388, 1128.486
3702.317, 1127.887
3704.245, 1126.580
3706.174, 1125.113
3708.102, 1122.601
3710.031, 1116.671
3711.959, 1112.022
3713.888, 1111.844
3715.816, 1108.203
3717.745, 1101.606
3719.673, 1101.700
3721.602, 1102.326
3723.530, 1092.854
3725.458, 1084.745
3727.387, 1083.156
3729.315, 1083.652
3731.244, 1085.339
3733.172, 1084.088
3735.101, 1081.225
3737.029, 1078.516
3738.958, 1075.418
3740.886, 1071.053
3742.815, 1069.530
3744.743, 1070.321
3746.672, 1066.892
3748.600, 1061.911
3750.529, 1058.652
3752.457, 1055.272
3754.385, 1049.643
3756.314, 1049.510
3758.242, 1052.921
3760.171, 1046.710
3762.099, 1037.662
3764.028, 1032.618
3765.956, 1029.882
3767.885, 1030.333
3769.813, 1026.410
3771.742, 1019.584
3773.670, 1017.517
3775.599, 1016.648
3777.527, 1014.128
3779.456, 1010.912
3781.384, 1007.328
3783.313, 1002.417
3785.241, 997.2822
3787.169, 996.0054
3789.098, 994.1230
3791.026, 987.4548
3792.955, 983.3769
3794.883, 983.5507
3796.812, 982.5895
3798.740, 979.9769
3800.669, 974.0850
3802.597, 967.2175
3804.526, 959.0330
3806.454, 956.8926
3808.383, 960.7488
3810.311, 958.7423
3812.240, 954.4616
3814.168, 953.2988
3816.096, 950.3987
3818.025, 943.4467
3819.953, 938.2209
3821.882, 934.7780
3823.810, 932.2990
3825.739, 929.7205
3827.667, 927.1698
3829.596, 921.3167
3831.524, 910.7379
3833.453, 907.6409
3835.381, 908.6530
3837.310, 905.4144
3839.238, 902.0789
3841.167, 901.4469
3843.095, 898.1309
3845.023, 891.6031
3846.952, 885.1514
3848.880, 879.9662
3850.809, 877.7161
3852.737, 877.0325
3854.666, 878.0642
3856.594, 873.4402
3858.523, 865.3024
3860.451, 861.4608
3862.380, 859.5201
3864.308, 859.2863
3866.237, 856.2444
3868.165, 850.2560
3870.094, 846.5190
3872.022, 843.8461
3873.950, 840.7030
3875.879, 838.2237
3877.807, 837.2036
3879.736, 833.7955
3881.664, 828.9637
3883.593, 826.7293
3885.521, 824.8217
3887.450, 821.8295
3889.378, 819.5189
3891.307, 818.2639
3893.235, 813.0219
3895.164, 807.1229
3897.092, 806.4352
3899.021, 805.4573
3900.949, 801.9658
3902.877, 800.8243
3904.806, 801.0372
3906.734, 797.2520
3908.663, 793.0771
3910.591, 791.4785
3912.520, 788.6686
3914.448, 784.2638
3916.377, 782.0500
3918.305, 780.1064
3920.234, 776.4366
3922.162, 773.2009
3924.091, 770.1250
3926.019, 766.6666
3927.948, 763.5882
3929.876, 760.8567
3931.804, 758.5714
3933.733, 757.4376
3935.661, 753.7448
3937.590, 749.6213
3939.518, 748.2037
3941.447, 746.4336
3943.375, 743.8754
3945.304, 740.4992
3947.232, 736.3975
3949.161, 731.7897
3951.089, 726.9788
3953.018, 723.7660
3954.946, 722.1223
3956.875, 721.3712
3958.803, 717.5829
3960.731, 712.0605
3962.660, 706.3983
3964.588, 703.1276
3966.517, 701.4576
3968.445, 698.9110
3970.374, 696.9606
3972.302, 692.7260
3974.231, 687.9399
3976.159, 685.1601
3978.088, 681.4073
3980.016, 677.2226
3981.945, 672.0539
3983.873, 667.3734
3985.802, 664.1673
3987.730, 661.4534
3989.658, 659.0313
3991.587, 654.5226
3993.515, 649.6493
3995.444, 645.2133
3997.372, 642.0410
3999.301, 639.4530
4001.229, 635.8458
4003.158, 631.9471
4005.086, 628.0378
4007.015, 622.6968
4008.943, 616.8721
4010.872, 611.9309
4012.800, 605.5242
4014.729, 598.5810
4016.657, 595.3527
4018.585, 594.6159
4020.514, 590.9811
4022.442, 584.6112
4024.371, 578.6266
4026.299, 573.8157
4028.228, 568.2494
4030.156, 562.8923
4032.085, 558.6805
4034.013, 555.7271
4035.942, 552.8743
4037.870, 547.7794
4039.799, 540.6944
4041.727, 535.1445
4043.656, 533.6483
4045.584, 530.2833
4047.512, 523.2519
4049.441, 517.9462
4051.369, 514.0951
4053.298, 508.3351
4055.226, 503.6361
4057.155, 499.8990
4059.083, 495.4657
4061.012, 491.7987
4062.940, 487.0931
4064.869, 481.9673
4066.797, 477.7645
4068.726, 473.7065
4070.654, 469.7631
4072.583, 467.0187
4074.511, 463.2544
4076.439, 456.1669
4078.368, 450.6674
4080.296, 447.7362
4082.225, 444.6990
4084.153, 440.8178
4086.082, 436.7592
4088.010, 432.5480
4089.939, 428.1450
4091.867, 425.2933
4093.796, 422.9622
4095.724, 419.7970
4097.653, 415.0899
4099.581, 410.2677
4101.510, 407.2176
4103.438, 403.7860
4105.367, 399.1043
4107.295, 394.7877
4109.224, 390.9822
4111.152, 388.4659
4113.081, 386.3059
4115.009, 383.7889
4116.938, 382.3027
4118.866, 381.1546
4120.794, 374.8950
4122.723, 369.1621
4124.651, 368.7783
4126.580, 366.7955
4128.508, 363.2109
4130.437, 361.1844
4132.365, 359.2992
4134.293, 356.2526
4136.222, 353.9269
4138.150, 352.2369
4140.079, 349.9964
4142.007, 347.3312
4143.936, 344.3317
4145.864, 342.1006
4147.793, 340.1983
4149.721, 336.1311
4151.650, 332.8557
4153.578, 332.4239
4155.507, 331.3582
4157.435, 329.4688
4159.364, 326.3951
4161.292, 323.7916
4163.221, 323.1940
4165.149, 321.3160
4167.078, 318.3720
4169.006, 316.7455
4170.935, 315.3319
4172.863, 313.7216
4174.792, 311.8152
4176.720, 309.7916
4178.648, 308.4196
4180.577, 307.7791
4182.505, 308.6885
4184.434, 306.8463
4186.362, 303.0845
4188.291, 301.7098
4190.219, 301.1128
4192.147, 301.6241
4194.076, 299.9082
4196.004, 296.7796
4197.933, 295.2719
4199.861, 293.8063
4201.790, 291.6021
4203.718, 291.7675
4205.647, 292.7463
4207.575, 290.1354
4209.504, 287.8808
4211.432, 287.6455
4213.361, 287.2979
4215.289, 286.9054
4217.218, 285.7652
4219.146, 284.7032
4221.075, 284.5338
4223.003, 281.7041
4224.932, 278.8835
4226.860, 281.6133
4228.789, 282.1832
4230.717, 279.1953
4232.646, 276.2665
4234.574, 274.5148
4236.502, 275.9344
4238.431, 275.6457
4240.359, 273.4662
4242.288, 273.6892
4244.216, 273.9709
4246.145, 271.9625
4248.073, 271.1842
4250.001, 271.8630
4251.930, 273.1648
4253.858, 273.3217
4255.787, 271.2051
4257.715, 269.4899
4259.644, 268.3518
4261.572, 267.8875
4263.501, 267.2476
4265.429, 266.1442
4267.358, 265.5219
4269.286, 265.0233
4271.215, 263.6194
4273.143, 263.0899
4275.072, 263.6413
4277.000, 262.8184
4278.929, 261.3448
4280.857, 259.4934
4282.786, 259.5966
4284.714, 261.2900
4286.643, 260.9617
4288.571, 259.9985
4290.500, 259.2284
4292.428, 258.7356
4294.356, 258.3692
4296.285, 258.1661
4298.213, 256.5281
4300.142, 252.7999
4302.070, 252.7202
4303.999, 254.8407
4305.927, 257.8402
4307.855, 258.1288
4309.784, 255.4970
4311.712, 254.0535
4313.641, 253.4246
4315.569, 253.1373
4317.498, 253.8270
4319.426, 254.8064
4321.355, 252.9701
4323.283, 251.5584
4325.212, 252.3094
4327.140, 251.1037
4329.069, 249.6224
4330.997, 252.0713
4332.926, 252.4976
4334.854, 249.7208
4336.783, 249.4592
4338.711, 249.8399
4340.640, 248.8261
4342.568, 248.4526
4344.497, 248.6181
4346.425, 247.9020
4348.354, 247.5865
4350.282, 248.8549
4352.210, 248.2405
4354.139, 246.7759
4356.067, 245.9891
4357.996, 245.5415
4359.924, 245.3815
4361.853, 246.6092
4363.781, 247.1770
4365.709, 244.6885
4367.638, 244.8196
4369.566, 246.5344
4371.495, 245.2963
4373.423, 244.3172
4375.352, 244.6638
4377.280, 244.7274
4379.209, 244.5324
4381.137, 244.1667
4383.066, 243.4068
4384.994, 242.3918
4386.923, 241.9966
4388.851, 241.3521
4390.780, 239.9604
4392.708, 241.2533
4394.637, 243.0346
4396.565, 241.0955
4398.494, 240.3942
4400.422, 241.3544
4402.351, 240.7375
4404.279, 240.3798
4406.208, 242.0269
4408.136, 240.7635
4410.064, 238.3541
4411.993, 238.8653
4413.921, 239.0657
4415.850, 238.3199
4417.778, 241.0506
4419.707, 243.0324
4421.635, 239.8338
4423.563, 239.5064
4425.492, 240.8562
4427.420, 240.3070
4429.349, 238.7662
4431.277, 236.5267
4433.206, 237.1949
4435.134, 237.8137
4437.063, 235.8826
4438.991, 235.9827
4440.920, 237.1602
4442.848, 235.9434
4444.777, 235.3431
4446.705, 236.0032
4448.634, 236.8546
4450.562, 237.1159
4452.491, 235.7143
4454.419, 235.7539
4456.348, 236.4993
4458.276, 235.7344
4460.205, 235.2646
4462.133, 235.5303
4464.062, 236.9754
4465.990, 237.9664
4467.918, 237.2517
4469.847, 236.5450
4471.775, 236.0189
4473.704, 235.6409
4475.632, 236.1364
4477.561, 237.2011
4479.489, 235.5667
4481.417, 233.9739
4483.346, 233.8092
4485.274, 234.8004
4487.203, 235.9484
4489.131, 236.0454
4491.060, 235.5958
4492.988, 234.6252
4494.917, 232.0188
4496.845, 231.0398
4498.774, 233.4549
4500.702, 234.4096
4502.631, 234.6098
4504.559, 234.7831
4506.488, 234.0069
4508.416, 233.0400
4510.345, 234.7174
4512.273, 234.9588
4514.202, 233.1852
4516.130, 234.1878
4518.059, 234.8934
4519.987, 231.9740
4521.916, 233.4870
4523.844, 236.2798
4525.772, 234.5088
4527.701, 233.2082
4529.629, 232.8490
4531.558, 231.6069
4533.486, 231.6015
4535.415, 233.4808
4537.343, 233.3057
4539.271, 232.3982
4541.200, 231.9097
4543.128, 231.4053
4545.057, 231.1497
4546.985, 231.9879
4548.914, 232.4843
4550.842, 232.3557
4552.771, 231.5981
4554.699, 230.5888
4556.628, 229.3639
4558.556, 231.8235
4560.485, 233.8880
4562.413, 231.4048
4564.342, 229.2817
4566.270, 228.4477
4568.199, 230.4883
4570.127, 230.9769
4572.056, 229.4072
4573.984, 228.5461
4575.913, 229.0396
4577.841, 231.5202
4579.770, 230.6502
4581.698, 229.8776
4583.626, 232.7326
4585.555, 231.8673
4587.483, 229.3113
4589.412, 230.4696
4591.340, 230.0762
4593.269, 228.0340
4595.197, 228.5898
4597.125, 229.2133
4599.054, 228.7611
4600.982, 231.5033
4602.911, 233.5054
4604.839, 232.0314
4606.768, 229.9991
4608.696, 228.8997
4610.625, 231.1327
4612.553, 231.9980
4614.482, 231.5134
4616.410, 231.2950
4618.339, 230.6803
4620.267, 229.6333
4622.196, 230.4101
4624.124, 230.6970
4626.053, 229.5526
4627.981, 230.8861
4629.910, 232.0875
4631.838, 230.1960
4633.767, 230.3672
4635.695, 231.1278
4637.624, 229.2919
4639.552, 228.4326
4641.480, 228.4610
4643.409, 227.4757
4645.337, 226.7710
4647.266, 226.6666
4649.194, 227.9864
4651.123, 228.0385
4653.051, 225.1641
4654.979, 224.4608
4656.908, 225.3548
4658.836, 227.8035
4660.765, 228.0272
4662.693, 227.5225
4664.622, 228.5954
4666.550, 228.9060
4668.479, 228.2808
4670.407, 226.2072
4672.336, 225.9969
4674.264, 227.6265
4676.193, 228.1954
4678.121, 227.9769
4680.050, 227.1140
4681.978, 225.6710
4683.907, 224.9097
4685.835, 225.5657
4687.764, 227.1085
4689.692, 227.6263
4691.621, 224.9997
4693.549, 225.4069
4695.478, 226.1917
4697.406, 223.0180
4699.334, 223.1419
4701.263, 225.1561
4703.191, 224.7526
4705.120, 224.9771
4707.048, 225.5337
4708.977, 222.7499
4710.905, 220.8664
4712.833, 220.8544
4714.762, 223.2741
4716.690, 224.4626
4718.619, 222.9640
4720.547, 223.5657
4722.476, 223.7868
4724.404, 222.2151
4726.333, 221.8246
4728.261, 222.2830
4730.190, 223.3905
4732.118, 223.6664
4734.047, 223.5963
4735.975, 223.9382
4737.904, 224.1051
4739.832, 223.6495
4741.761, 221.3924
4743.689, 220.5326
4745.618, 221.1129
4747.546, 223.2618
4749.475, 221.9108
4751.403, 218.3049
4753.332, 221.6567
4755.260, 223.0375
4757.188, 221.3240
4759.117, 221.1520
4761.045, 221.0614
4762.974, 220.5384
4764.902, 220.1498
4766.831, 219.9689
4768.759, 219.9988
4770.688, 219.8265
4772.616, 219.2397
4774.544, 217.9317
4776.473, 219.5296
4778.401, 220.9403
4780.330, 219.7273
4782.258, 220.4527
4784.187, 221.0566
4786.115, 219.2571
4788.044, 218.6652
4789.972, 218.9109
4791.901, 219.4189
4793.829, 219.9340
4795.758, 219.8990
4797.686, 217.9429
4799.615, 218.6349
4801.543, 220.2417
4803.472, 218.5123
4805.400, 217.3431
4807.329, 216.8775
4809.257, 216.3744
4811.186, 216.5357
4813.114, 216.9763
4815.042, 216.1957
4816.971, 216.3629
4818.899, 217.1904
4820.828, 216.3563
4822.756, 215.5117
4824.685, 215.1926
4826.613, 215.9988
4828.542, 217.0930
4830.470, 217.9841
4832.398, 216.9287
4834.327, 216.5050
4836.255, 216.8293
4838.184, 214.6674
4840.112, 213.1265
4842.041, 213.1400
4843.969, 214.7429
4845.898, 215.8644
4847.826, 215.9388
4849.755, 215.4791
4851.683, 214.9577
4853.612, 214.4919
4855.540, 212.2582
4857.469, 211.7850
4859.397, 213.8625
4861.326, 215.0711
4863.254, 215.3386
4865.183, 214.7167
4867.111, 214.2825
4869.040, 213.5788
4870.968, 212.5633
4872.896, 212.8676
4874.825, 212.8411
4876.753, 211.8626
4878.682, 212.4780
4880.610, 212.3174
4882.539, 210.6175
4884.467, 209.9266
4886.396, 210.8575
4888.324, 213.2531
4890.252, 211.3006
4892.181, 209.4638
4894.109, 209.5891
4896.038, 211.3338
4897.966, 211.9212
4899.895, 210.5967
4901.823, 209.6298
4903.752, 209.7055
4905.680, 210.8490
4907.609, 209.8576
4909.537, 209.7167
4911.466, 210.8410
4913.394, 209.1078
4915.323, 208.5932
4917.251, 210.2001
4919.180, 209.5772
4921.108, 208.3360
4923.037, 207.4078
4924.965, 209.3876
4926.894, 210.0188
4928.822, 208.6159
4930.750, 207.3783
4932.679, 207.2805
4934.607, 208.1148
4936.536, 208.6351
4938.464, 208.4669
4940.393, 207.5112
4942.321, 204.8571
4944.250, 204.8498
4946.178, 206.6160
4948.106, 205.7911
4950.035, 205.4509
4951.963, 205.6182
4953.892, 204.9525
4955.820, 206.7253
4957.749, 208.3716
4959.677, 204.3733
4961.606, 202.7378
4963.534, 203.1085
4965.463, 204.0906
4967.391, 204.1325
4969.320, 203.6367
4971.248, 203.0922
4973.177, 202.5478
4975.105, 202.4181
4977.034, 203.2018
4978.962, 203.1058
4980.891, 202.9877
4982.819, 203.5751
4984.748, 202.1379
4986.676, 200.8278
4988.604, 200.7834
4990.533, 200.8140
4992.461, 200.7982
4994.390, 200.7210
4996.318, 200.3704
4998.247, 200.7767
5000.175, 201.7742
5002.104, 201.0631
5004.032, 199.5225
5005.960, 198.0742
5007.889, 199.8044
5009.817, 200.5154
5011.746, 199.9496
5013.674, 199.3220
5015.603, 199.0051
5017.531, 198.8189
5019.460, 198.4126
5021.388, 197.6964
5023.317, 197.1388
5025.245, 197.2664
5027.174, 198.2526
5029.102, 198.7272
5031.031, 197.4866
5032.959, 196.9409
5034.888, 196.2401
5036.816, 194.8313
5038.745, 194.9526
5040.673, 195.7829
5042.602, 196.6785
5044.530, 195.6988
5046.458, 194.6598
5048.387, 194.1055
5050.315, 193.7603
5052.244, 194.4988
5054.172, 195.7731
5056.101, 196.0084
5058.029, 196.8714
5059.958, 196.9121
5061.886, 192.7549
5063.814, 192.4252
5065.743, 193.9043
5067.671, 195.0654
5069.600, 196.3981
5071.528, 196.9326
5073.457, 196.1139
5075.385, 194.6763
5077.314, 193.3398
5079.242, 192.4107
5081.171, 191.8936
5083.099, 191.7695
5085.028, 191.9849
5086.956, 192.6243
5088.885, 192.6923
5090.813, 192.6583
5092.742, 193.8638
5094.670, 193.3460
5096.599, 191.9680
5098.527, 190.7132
5100.456, 191.6225
5102.384, 192.4546
5104.313, 191.8352
5106.241, 193.4758
5108.169, 193.2279
5110.098, 190.8599
5112.026, 192.7835
5113.955, 193.1841
5115.883, 192.1236
5117.812, 192.1334
5119.740, 192.4720
5121.668, 192.3743
5123.597, 190.9431
5125.525, 190.1619
5127.454, 190.6059
5129.382, 192.3267
5131.311, 191.2747
5133.239, 189.2090
5135.168, 187.4432
5137.096, 190.1598
5139.025, 190.6724
5140.953, 189.5015
5142.882, 191.5056
5144.810, 191.2440
5146.739, 189.8181
5148.667, 189.0268
5150.596, 189.3814
5152.524, 189.7116
5154.453, 189.3636
5156.381, 188.1979
5158.310, 188.8264
5160.238, 190.9802
5162.167, 190.2695
5164.095, 190.1632
5166.023, 190.6664
5167.952, 190.8216
5169.880, 190.1032
5171.809, 188.8056
5173.737, 187.2774
5175.666, 188.5875
5177.594, 189.2000
5179.522, 187.8745
5181.451, 188.5586
5183.379, 188.6586
5185.308, 188.1697
5187.236, 188.4366
5189.165, 189.1387
5191.093, 189.2897
5193.022, 187.8420
5194.950, 186.9122
5196.879, 186.3741
5198.807, 186.1540
5200.736, 186.9520
5202.664, 186.9357
5204.593, 186.3518
5206.521, 186.3663
5208.450, 189.7731
5210.378, 192.4831
5212.307, 189.0145
5214.235, 187.8547
5216.164, 187.4955
5218.092, 187.2778
5220.021, 188.2097
5221.949, 188.6781
5223.877, 188.7889
5225.806, 190.0182
5227.734, 188.2885
5229.663, 187.5055
5231.591, 191.9046
5233.520, 191.1385
5235.448, 188.5976
5237.376, 186.5769
5239.305, 189.2074
5241.233, 189.2493
5243.162, 187.3517
5245.090, 186.4975
5247.019, 187.7396
5248.947, 188.7213
5250.876, 188.0134
5252.804, 188.8006
5254.733, 188.7005
5256.661, 187.8224
5258.590, 189.0135
5260.518, 188.5342
5262.447, 187.7734
5264.375, 188.9016
5266.304, 189.2959
5268.232, 189.5125
5270.161, 189.6029
5272.089, 187.7586
5274.018, 187.5704
5275.946, 188.7061
5277.875, 189.6252
5279.803, 190.7006
5281.731, 191.8240
5283.660, 192.8389
5285.588, 191.6114
5287.517, 191.3393
5289.445, 191.3831
5291.374, 187.6488
5293.302, 187.7657
5295.230, 189.1565
5297.159, 189.0856
5299.087, 190.7035
5301.016, 189.3966
5302.944, 186.2360
5304.873, 189.3863
5306.801, 190.5196
5308.730, 189.9082
5310.658, 188.9630
5312.587, 187.9070
5314.515, 188.0056
5316.444, 188.9974
5318.372, 187.2637
5320.301, 187.8941
5322.229, 189.3009
5324.158, 188.9651
5326.086, 189.6351
5328.015, 189.7367
5329.943, 188.9331
5331.872, 189.2272
5333.800, 189.1488
5335.729, 188.6672
5337.657, 187.9356
5339.585, 190.0357
5341.514, 190.5532
5343.442, 188.7986
5345.371, 189.4644
5347.299, 189.9715
5349.228, 189.5323
5351.156, 187.1708
5353.084, 187.5539
5355.013, 188.7879
5356.941, 189.3374
5358.870, 185.5926
5360.798, 187.7159
5362.727, 191.0071
5364.655, 189.5994
5366.584, 188.2975
5368.512, 187.9293
5370.441, 188.2787
5372.369, 188.3344
5374.298, 186.7008
5376.226, 186.2304
5378.155, 188.9246
5380.083, 188.6514
5382.012, 189.9100
5383.940, 191.8916
5385.869, 189.4908
5387.797, 188.5628
5389.726, 189.2214
5391.654, 191.0088
5393.583, 190.2352
5395.511, 189.3517
5397.439, 189.0558
5399.368, 189.5630
5401.296, 188.4854
5403.225, 188.1048
5405.153, 189.1335
5407.082, 189.7228
5409.010, 189.5054
5410.938, 188.8991
5412.867, 188.1902
5414.795, 191.4663
5416.724, 192.0162
5418.652, 190.2841
5420.581, 192.3782
5422.509, 189.8443
5424.438, 191.5677
5426.366, 201.2674
5428.295, 195.8644
5430.223, 191.3524
5432.152, 189.7254
5434.080, 188.7593
5436.009, 189.7838
5437.937, 191.6319
5439.866, 192.9966
5441.794, 191.4074
5443.723, 190.1112
5445.651, 190.2395
5447.580, 191.9398
5449.508, 189.6301
5451.437, 188.7721
5453.365, 190.1477
5455.293, 193.3031
5457.222, 192.7521
5459.150, 192.5428
5461.079, 193.5632
5463.007, 193.1626
5464.936, 192.6038
5466.864, 191.9386
5468.792, 191.2209
5470.721, 192.2593
5472.649, 192.5854
5474.578, 192.1832
5476.506, 191.6585
5478.435, 193.1732
5480.363, 192.6647
5482.292, 190.8928
5484.220, 193.0333
5486.149, 194.5036
5488.077, 195.1576
5490.006, 195.2024
5491.934, 194.1819
5493.863, 194.2827
5495.791, 195.1344
5497.720, 196.1277
5499.648, 194.3253
5501.577, 193.4121
5503.505, 194.0157
5505.434, 195.5480
5507.362, 195.9027
5509.291, 195.7408
5511.219, 195.6374
5513.147, 196.6110
5515.076, 195.0683
5517.004, 194.0666
5518.933, 195.0721
5520.861, 193.9722
5522.790, 193.7469
5524.718, 194.8104
5526.646, 196.8859
5528.575, 198.1037
5530.503, 197.3446
5532.432, 195.5071
5534.360, 193.9733
5536.289, 194.8517
5538.217, 195.3465
5540.146, 195.1741
5542.074, 196.2708
5544.003, 195.5667
5545.931, 194.9514
5547.860, 195.1109
5549.788, 194.9573
5551.717, 197.1063
5553.645, 199.8983
5555.574, 202.5659
5557.502, 210.0955
5559.431, 204.6978
5561.359, 197.0130
5563.288, 197.0491
5565.216, 199.2614
5567.145, 199.6212
5569.073, 198.1121
5571.001, 195.5508
5572.930, 194.5643
5574.858, 195.0274
5576.787, 196.2807
5578.715, 197.5021
5580.644, 197.6521
5582.572, 197.6426
5584.500, 197.6004
5586.429, 197.1920
5588.357, 196.9468
5590.286, 195.9958
5592.214, 194.8958
5594.143, 196.1986
5596.071, 195.2571
5598.000, 194.8887
5599.928, 195.7957
5601.857, 196.1917
5603.785, 196.9950
5605.714, 195.7726
5607.642, 193.1600
5609.571, 195.8232
5611.499, 194.0061
5613.428, 192.1283
5615.356, 192.7107
5617.285, 192.5413
5619.213, 193.4675
5621.142, 194.6575
5623.070, 195.2138
5624.999, 193.8625
5626.927, 191.1696
5628.855, 189.1090
5630.784, 189.0230
5632.712, 191.4654
5634.641, 192.3691
5636.569, 191.7168
5638.498, 190.4429
5640.426, 191.5445
5642.354, 189.1420
5644.283, 188.0263
5646.211, 191.1340
5648.140, 188.9737
5650.068, 188.5528
5651.997, 188.5796
5653.925, 187.5750
5655.854, 187.6660
5657.782, 187.1082
5659.711, 186.9690
5661.639, 187.6526
5663.568, 185.9550
5665.496, 185.6493
5667.425, 185.6469
5669.353, 185.0476
5671.282, 184.8844
5673.210, 186.5435
5675.139, 186.6334
5677.067, 183.7841
5678.996, 182.2392
5680.924, 182.2274
5682.853, 181.8413
5684.781, 181.0777
5686.709, 185.1844
5688.638, 184.6441
5690.566, 183.1275
5692.495, 182.7711
5694.423, 182.1579
5696.352, 180.4390
5698.280, 180.0012
5700.208, 181.2229
5702.137, 182.5245
5704.065, 180.6438
5705.994, 179.4226
5707.922, 179.4807
5709.851, 178.7327
5711.779, 176.0376
5713.708, 174.8080
5715.636, 175.6429
5717.565, 177.7476
5719.493, 178.2582
5721.422, 177.7293
5723.350, 176.5034
5725.279, 174.9509
5727.207, 177.3976
5729.136, 175.8088
5731.064, 172.8909
5732.993, 172.7300
5734.921, 174.7274
5736.850, 173.4747
5738.778, 171.8267
5740.707, 172.1133
5742.635, 172.4208
5744.563, 172.2301
5746.492, 169.7868
5748.420, 166.6841
5750.349, 172.9050
5752.277, 172.1399
5754.206, 170.0990
5756.134, 169.2175
5758.063, 168.2321
5759.991, 169.7302
5761.919, 169.6325
5763.848, 168.1971
5765.776, 167.4607
5767.705, 167.6260
5769.633, 166.9116
5771.562, 166.6712
5773.490, 167.7225
5775.419, 164.6688
5777.347, 165.2318
5779.276, 165.5957
5781.204, 163.8412
5783.133, 164.9153
5785.061, 164.8940
5786.990, 164.2955
5788.918, 163.1962
5790.847, 160.4351
5792.775, 162.7858
5794.704, 163.6154
5796.632, 162.1900
5798.561, 160.2899
5800.489, 160.7841
5802.417, 161.1059
5804.346, 161.1551
5806.274, 161.0711
5808.203, 160.0017
5810.131, 160.5557
5812.060, 160.9131
5813.988, 159.9021
5815.917, 157.2183
5817.845, 158.6676
5819.773, 158.4942
5821.702, 157.3655
5823.630, 158.0137
5825.559, 158.9410
5827.487, 158.2745
5829.416, 156.9221
5831.344, 155.6529
5833.273, 153.6213
5835.201, 154.8384
5837.130, 156.4471
5839.058, 156.8792
5840.987, 155.7648
5842.915, 155.5691
5844.844, 155.4500
5846.772, 155.4710
5848.701, 155.8056
5850.629, 156.3773
5852.558, 153.2217
5854.486, 152.3857
5856.415, 154.1845
5858.343, 152.5685
5860.271, 152.3718
5862.200, 152.9916
5864.128, 153.3142
5866.057, 152.7018
5867.985, 151.8466
5869.914, 153.0721
5871.842, 152.9077
5873.771, 151.1032
5875.699, 152.9899
5877.627, 150.9076
5879.556, 150.1030
5881.484, 150.9538
5883.413, 151.8859
5885.341, 150.9867
5887.270, 152.0398
5889.198, 152.2052
5891.127, 150.3846
5893.055, 147.9921
5894.984, 149.2910
5896.912, 150.0885
5898.841, 149.5938
5900.769, 148.6120
5902.698, 149.2625
5904.626, 149.0114
5906.555, 148.7419
5908.483, 148.2153
5910.412, 146.1964
5912.340, 148.2940
5914.269, 148.7865
5916.197, 148.2224
5918.125, 147.8169
5920.054, 145.9087
5921.982, 146.5796
5923.911, 147.0584
5925.839, 147.2445
5927.768, 148.3732
5929.696, 147.6331
5931.625, 146.6572
5933.553, 147.1897
5935.481, 148.4832
5937.410, 145.9831
5939.338, 146.5593
5941.267, 146.2481
5943.195, 145.5927
5945.124, 145.9219
5947.052, 146.7854
5948.981, 145.3536
5950.909, 145.6382
5952.838, 146.8362
5954.766, 145.6529
5956.695, 146.6949
5958.623, 146.8709
5960.552, 146.3215
5962.480, 146.3749
5964.409, 148.9065
5966.337, 152.5326
5968.266, 151.2962
5970.194, 149.1690
5972.123, 149.2462
5974.051, 148.1920
5975.979, 149.0337
5977.908, 152.2608
5979.836, 156.1834
5981.765, 158.8956
5983.693, 159.6646
5985.622, 158.2508
5987.550, 153.6396
5989.479, 149.5711
5991.407, 150.3521
5993.335, 151.2952
5995.264, 149.0240
5997.192, 146.1095
5999.121, 144.9170
6001.049, 146.1510
6002.978, 143.4969
6004.906, 145.5251
6006.835, 147.8445
6008.763, 147.8085
6010.692, 147.3922
6012.620, 147.2120
6014.549, 146.1158
6016.477, 145.3646
6018.406, 146.0153
6020.334, 148.4373
6022.263, 149.1168
6024.191, 148.2693
6026.120, 148.2598
6028.048, 149.7019
6029.977, 149.0227
6031.905, 149.3351
6033.833, 148.7941
6035.762, 149.0632
6037.690, 150.9754
6039.619, 150.8416
6041.547, 153.9897
6043.476, 153.8176
6045.404, 152.6988
6047.333, 153.8049
6049.261, 155.9701
6051.189, 154.4798
6053.118, 154.1769
6055.046, 155.5991
6056.975, 157.5032
6058.903, 158.8497
6060.832, 158.3716
6062.760, 159.3719
6064.689, 160.4178
6066.617, 160.2545
6068.546, 161.5864
6070.474, 160.5934
6072.403, 160.8351
6074.331, 163.3695
6076.260, 166.3401
6078.188, 164.1065
6080.117, 165.2923
6082.045, 168.2394
6083.974, 169.1975
6085.902, 168.3358
6087.831, 171.3558
6089.759, 172.7372
6091.688, 172.2358
6093.616, 174.4405
6095.544, 178.6609
6097.473, 178.4669
6099.401, 181.0073
6101.330, 178.8254
6103.258, 179.9106
6105.187, 183.5917
6107.115, 182.1531
6109.043, 188.8332
6110.972, 189.4192
6112.900, 190.5420
6114.829, 193.1536
6116.757, 194.0988
6118.686, 196.6382
6120.614, 199.3316
6122.543, 200.7945
6124.471, 200.9358
6126.400, 201.3198
6128.328, 206.6888
6130.257, 209.2833
6132.185, 212.7171
6134.114, 215.0853
6136.042, 215.9099
6137.971, 218.9342
6139.899, 222.5489
6141.828, 224.2761
6143.756, 227.6602
6145.685, 231.2424
6147.613, 230.6693
6149.542, 237.0807
6151.470, 243.1597
6153.398, 244.6704
6155.327, 245.5996
6157.255, 249.4195
6159.184, 248.0929
6161.112, 253.6150
6163.041, 256.3149
6164.969, 257.6775
6166.897, 261.8232
6168.826, 270.9732
6170.754, 274.3237
6172.683, 275.4627
6174.611, 278.2270
6176.540, 282.2997
6178.468, 285.5757
6180.397, 288.6056
6182.325, 290.1539
6184.254, 293.8271
6186.182, 299.5897
6188.111, 305.0888
6190.039, 306.6280
6191.968, 314.6391
6193.896, 314.3798
6195.825, 316.1969
6197.753, 322.1071
6199.682, 326.6622
6201.610, 329.1361
6203.539, 334.1849
6205.467, 335.5959
6207.396, 336.6698
6209.324, 340.1266
6211.252, 343.6974
6213.181, 350.2541
6215.109, 353.2511
6217.038, 355.6967
6218.966, 359.0949
6220.895, 363.0085
6222.823, 366.7394
6224.751, 368.1284
6226.680, 369.6429
6228.608, 373.8951
6230.537, 379.3947
6232.465, 382.4590
6234.394, 384.8636
6236.322, 388.8338
6238.251, 391.8384
6240.179, 395.4904
6242.108, 399.9967
6244.036, 401.9195
6245.965, 404.5322
6247.893, 407.0564
6249.822, 411.5333
6251.750, 414.5876
6253.679, 415.2758
6255.607, 421.6684
6257.536, 423.7299
6259.464, 427.1831
6261.393, 432.1021
6263.321, 434.2278
6265.250, 432.8384
6267.178, 439.6705
6269.106, 442.4500
6271.035, 445.5808
6272.963, 446.8264
6274.892, 447.2259
6276.820, 450.0319
6278.749, 452.4092
6280.677, 454.7850
6282.605, 457.7990
6284.534, 460.3356
6286.462, 461.6983
6288.391, 462.2116
6290.319, 463.2888
6292.248, 466.2767
6294.176, 468.7663
6296.105, 470.0309
6298.033, 470.9769
6299.962, 473.1118
6301.890, 478.5442
6303.819, 481.2047
6305.747, 483.7262
6307.676, 484.8691
6309.604, 484.4703
6311.533, 484.4293
6313.461, 488.4624
6315.390, 489.5594
6317.318, 489.7422
6319.247, 492.3216
6321.175, 495.4272
6323.104, 495.9287
6325.032, 503.0085
6326.960, 502.0451
6328.889, 503.7046
6330.817, 504.1650
6332.746, 504.0874
6334.674, 506.4495
6336.603, 505.2733
6338.531, 510.2623
6340.459, 511.2861
6342.388, 510.5396
6344.316, 512.4429
6346.245, 516.0463
6348.173, 513.5158
6350.102, 512.6155
6352.030, 514.3634
6353.959, 515.3588
6355.887, 516.5468
6357.816, 518.4981
6359.744, 518.9155
6361.673, 518.5973
6363.601, 524.5033
6365.530, 524.9370
6367.458, 525.1094
6369.387, 528.0882
6371.315, 530.4669
6373.244, 531.6252
6375.172, 532.0588
6377.101, 534.0048
6379.029, 531.8519
6380.958, 532.4706
6382.886, 540.0521
6384.814, 541.3740
6386.743, 543.1567
6388.671, 544.7316
6390.600, 545.6250
6392.528, 547.2147
6394.457, 550.7620
6396.385, 555.1986
6398.313, 554.7712
6400.242, 558.2039
6402.170, 557.3756
6404.099, 558.5346
6406.027, 561.4409
6407.956, 563.4647
6409.884, 566.6532
6411.813, 560.9495
6413.741, 559.5469
6415.670, 559.1807
6417.598, 563.1852
6419.527, 566.3942
6421.455, 561.6367
6423.384, 563.0771
6425.312, 560.6359
6427.241, 564.6414
6429.169, 561.6064
6431.098, 558.9447
6433.026, 559.7314
6434.955, 554.8364
6436.883, 552.8505
6438.812, 552.2664
6440.740, 551.9349
6442.668, 551.3514
6444.597, 549.1445
6446.525, 545.8906
6448.454, 544.1834
6450.382, 540.4366
6452.311, 542.9686
6454.239, 536.6210
6456.167, 533.8796
6458.096, 532.8624
6460.024, 526.8694
6461.953, 520.7046
6463.881, 517.1668
6465.810, 517.9437
6467.738, 518.3210
6469.667, 509.5770
6471.595, 502.5262
6473.524, 504.9184
6475.452, 504.3810
6477.381, 498.0683
6479.309, 499.5677
6481.238, 495.7599
6483.166, 491.2816
6485.095, 488.1247
6487.023, 484.5372
6488.952, 480.8519
6490.880, 480.6224
6492.809, 481.4129
6494.737, 473.7636
6496.666, 470.4143
6498.594, 470.5059
6500.522, 468.2526
6502.451, 463.9962
6504.379, 462.2267
6506.308, 457.6432
6508.236, 459.4453
6510.165, 456.6320
6512.093, 452.1979
6514.021, 450.6066
6515.950, 449.4854
6517.878, 444.6978
6519.807, 439.9684
6521.735, 441.2831
6523.664, 440.5020
6525.592, 436.3257
6527.521, 433.1486
6529.449, 432.5057
6531.378, 429.8260
6533.306, 423.7538
6535.235, 425.1544
6537.163, 425.8817
6539.092, 420.0941
6541.020, 415.3383
6542.949, 414.8345
6544.877, 415.1363
6546.806, 418.9029
6548.734, 408.7427
6550.663, 412.2493
6552.591, 411.1891
6554.520, 409.4095
6556.448, 407.6496
6558.376, 405.3409
6560.305, 406.9826
6562.233, 405.1320
6564.162, 401.1782
6566.090, 399.0722
6568.019, 395.8915
6569.947, 395.8989
6571.875, 395.0166
6573.804, 390.1730
6575.732, 389.4960
6577.661, 390.8217
6579.589, 389.0228
6581.518, 385.3307
6583.446, 386.3537
6585.375, 385.3722
6587.303, 380.8013
6589.232, 378.0000
6591.160, 379.7825
6593.089, 376.4218
6595.017, 376.6156
6596.946, 375.2279
6598.874, 373.0651
6600.803, 370.9817
6602.731, 370.0793
6604.660, 370.0384
6606.588, 368.3504
6608.517, 365.6374
6610.445, 365.7520
6612.374, 367.7784
6614.302, 362.5744
6616.230, 359.0306
6618.159, 358.9430
6620.087, 358.3984
6622.016, 357.5449
6623.944, 354.0212
6625.873, 354.4786
6627.801, 354.6133
6629.729, 354.4330
##END=



