
175.0878, 0.0000000E+00
175.5699, 0.2493360
176.0521, 2.2315999E-02
176.5342, 4.2885002E-02
177.0163, 0.3310010
177.4984, 0.6510240
177.9805, 0.8711620
178.4626, 0.9874570
178.9448, 1.056351
179.4269, 1.000252
179.9090, 0.9690550
180.3911, 0.9838640
180.8732, 1.056252
181.3553, 1.212173
181.8375, 1.490280
182.3196, 1.917442
182.8017, 2.191399
183.2838, 2.218842
183.7659, 2.212448
184.2480, 2.254898
184.7301, 2.355858
185.2123, 2.503914
185.6944, 2.699875
186.1765, 2.954483
186.6586, 3.147179
187.1407, 3.186104
187.6228, 3.228172
188.1050, 3.406113
188.5871, 3.737045
189.0692, 3.765549
189.5513, 4.511986
190.0334, 5.047401
190.5155, 5.383896
190.9977, 4.970848
191.4798, 5.479446
191.9619, 5.587242
192.4440, 5.657005
192.9261, 6.231033
193.4082, 5.812004
193.8904, 6.333290
194.3725, 6.448685
194.8546, 6.718719
195.3367, 6.588318
195.8188, 6.551338
196.3009, 6.877438
196.7831, 6.980331
197.2652, 6.729404
197.7473, 6.888397
198.2294, 6.264503
198.7115, 6.280506
199.1936, 6.088448
199.6758, 5.965260
200.1579, 5.956818
200.6400, 5.926674
201.1221, 5.845238
201.6042, 5.809330
202.0863, 5.644020
202.5685, 5.319313
203.0506, 4.906906
203.5327, 4.584164
204.0148, 4.361320
204.4969, 4.174732
204.9790, 3.949440
205.4612, 3.594635
205.9433, 3.316250
206.4254, 3.270039
206.9075, 3.406052
207.3896, 3.428940
207.8717, 3.357109
208.3539, 3.201248
208.8360, 2.912472
209.3181, 2.554729
209.8002, 2.234192
210.2823, 2.060932
210.7644, 2.060795
211.2466, 1.996063
211.7287, 1.766998
212.2108, 1.580570
212.6929, 1.572414
213.1750, 1.699013
213.6571, 1.787312
214.1393, 1.664219
214.6214, 1.269367
215.1035, 1.092247
215.5856, 1.348789
216.0677, 1.593601
216.5498, 1.575256
217.0320, 1.312359
217.5141, 0.9900020
217.9962, 0.7761920
218.4783, 0.6823690
218.9604, 0.6688770
219.4425, 0.8703460
219.9247, 1.024162
220.4068, 0.9062000
220.8889, 0.5544240
221.3710, 0.2720790
221.8531, 0.3561520
222.3352, 0.8304370
222.8174, 1.096790
223.2995, 0.8995130
223.7816, 0.6673580
224.2637, 0.7659760
224.7458, 1.197681
225.2279, 1.561981
225.7100, 1.524685
226.1922, 1.114117
226.6743, 0.6975480
227.1564, 0.1932260
227.6385, 0.2401310
228.1206, 0.3983730
228.6027, 0.2640230
229.0849, 8.9267999E-02
229.5670, 5.6168001E-02
230.0491, 0.1316720
230.5312, 0.2015720
231.0133, 0.2845340
231.4954, 0.3156660
231.9776, 0.1793250
232.4597, 0.1488760
232.9418, 0.3920020
233.4239, 0.1966170
233.9060, 0.2065050
234.3881, 0.4602050
234.8703, 0.4182740
235.3524, 0.2425540
235.8345, 0.1553420
236.3166, 0.1791570
236.7987, 0.1999360
237.2808, 0.2175750
237.7630, 0.1803090
238.2451, 1.8833000E-02
238.7272, 0.5079150
239.2093, 1.033386
239.6914, 1.106724
240.1735, 0.5347820
240.6557, 0.1339800
241.1378, 0.4336810
241.6199, 0.9626160
242.1020, 1.265427
242.5841, 1.157837
243.0662, 0.8563230
243.5484, 0.7316210
244.0305, 0.8424950
244.5126, 0.9732480
244.9947, 1.081066
245.4768, 1.173485
245.9589, 1.268650
246.4410, 1.375427
246.9232, 1.452816
247.4053, 1.409199
247.8874, 1.169102
248.3695, 0.9900930
248.8516, 0.9619790
249.3337, 0.9780920
249.8159, 0.9471660
250.2980, 0.8429760
250.7801, 0.7257840
251.2622, 0.7031140
251.7443, 0.8276410
252.2264, 0.9303130
252.7086, 0.9648060
253.1907, 0.9948810
253.6728, 1.096218
254.1549, 1.276093
254.6370, 1.443436
255.1191, 1.443741
255.6013, 1.168316
256.0834, 0.9575160
256.5655, 0.7958300
257.0476, 0.7021520
257.5297, 0.7025030
258.0118, 0.7949710
258.4940, 0.9439930
258.9761, 1.121056
259.4582, 1.407536
259.9403, 1.497673
260.4224, 1.272461
260.9045, 0.9868430
261.3867, 0.7839090
261.8688, 0.6848980
262.3509, 0.6340100
262.8330, 0.5547520
263.3151, 0.3942910
263.7972, 0.4186330
264.2794, 0.8495220
264.7615, 1.244045
265.2436, 1.330090
265.7257, 1.121170
266.2078, 0.8122980
266.6899, 0.5849460
267.1721, 0.4476850
267.6542, 0.3543780
268.1363, 0.3128170
268.6184, 0.2975460
269.1005, 0.3123170
269.5826, 0.3464970
270.0648, 1.4248000E-02
270.5469, 0.4668240
271.0290, 0.7257880
271.5111, 0.8015250
271.9932, 0.1459200
272.4753, 0.4340100
272.9575, 0.3428080
273.4396, 0.2368280
273.9217, 0.6573830
274.4038, 0.1070670
274.8859, 0.5187950
275.3680, 0.5448680
275.8501, 0.7456700
276.3322, 0.5651660
276.8144, 0.5019840
277.2965, 0.8202060
277.7786, 0.9280430
278.2607, 0.7038420
278.7428, 0.9133570
279.2249, 0.3413810
279.7071, 0.4533160
280.1892, 0.8629530
280.6713, 0.6574780
281.1534, 0.8745190
281.6355, 0.9290350
282.1176, 0.7443620
282.5998, 0.5256770
283.0819, 0.4552570
283.5640, 0.2642750
284.0461, 0.1476480
284.5282, 0.1939770
285.0103, 0.3220370
285.4925, 0.4151000
285.9746, 0.4563710
286.4567, 0.4539990
286.9388, 0.3695950
287.4209, 0.1463930
287.9030, 3.8830000E-03
288.3852, 2.4673000E-02
288.8673, 3.6952998E-02
289.3494, 0.1438600
289.8315, 0.2991560
290.3136, 0.4826090
290.7957, 0.6608350
291.2779, 0.8340420
291.7600, 0.9131740
292.2421, 0.8377950
292.7242, 0.7177240
293.2063, 0.6664350
293.6884, 0.6899030
294.1706, 0.6838720
294.6527, 0.5340080
295.1348, 0.2399640
295.6169, 4.2888999E-02
296.0990, 2.8853999E-02
296.5811, 1.9230000E-03
297.0633, 0.1355130
297.5454, 0.3698650
298.0275, 0.6108860
298.5096, 0.8215330
298.9917, 0.9879910
299.4738, 1.036755
299.9560, 0.8444250
300.4381, 0.6442450
300.9202, 0.5740780
301.4023, 0.6163900
301.8844, 0.6871570
302.3665, 0.7584610
302.8487, 0.8201870
303.3308, 0.8202510
303.8129, 0.6608660
304.2950, 0.5994340
304.7771, 0.8269880
305.2592, 1.243877
305.7414, 1.601292
306.2235, 1.814251
306.7056, 1.909634
307.1877, 1.881893
307.6698, 1.650059
308.1519, 1.599800
308.6341, 2.068115
309.1162, 2.758488
309.5983, 3.128494
310.0804, 3.008408
310.5625, 2.682030
311.0446, 2.498821
311.5268, 2.456070
312.0089, 2.449791
312.4910, 2.110802
312.9731, 2.626503
313.4552, 2.947510
313.9373, 3.084488
314.4195, 2.489525
314.9016, 2.847408
315.3837, 2.835060
315.8658, 2.802593
316.3479, 3.296104
316.8300, 2.827232
317.3121, 3.326485
317.7943, 3.436253
318.2764, 3.710995
318.7585, 3.598476
319.2406, 3.604332
319.7227, 3.995319
320.2048, 4.170792
320.6870, 4.008625
321.1691, 4.280666
321.6512, 3.774414
322.1333, 3.965813
322.6154, 4.465294
323.0975, 4.011395
323.5797, 4.011509
324.0618, 4.180473
324.5439, 4.351074
325.0260, 4.444439
325.5081, 4.500389
325.9902, 4.632133
326.4724, 4.905117
326.9545, 5.150570
327.4366, 5.014919
327.9187, 4.386108
328.4008, 4.036903
328.8829, 4.359440
329.3651, 4.903854
329.8472, 5.139969
330.3293, 4.988041
330.8114, 4.660515
331.2935, 4.312931
331.7756, 3.950619
332.2578, 3.776943
332.7399, 3.980255
333.2220, 4.253742
333.7041, 4.389267
334.1862, 4.381851
334.6683, 4.320530
335.1505, 4.256844
335.6326, 4.192524
336.1147, 4.145344
336.5968, 4.129333
337.0789, 4.112801
337.5610, 4.076427
338.0432, 4.035515
338.5253, 4.039776
339.0074, 4.132030
339.4895, 4.247066
339.9716, 4.193768
340.4537, 3.893589
340.9359, 3.598881
341.4180, 3.332928
341.9001, 3.104618
342.3822, 2.927704
342.8643, 2.806499
343.3464, 2.747227
343.8286, 2.774780
344.3107, 2.951817
344.7928, 3.019459
345.2749, 2.912609
345.7570, 2.733711
346.2391, 2.548023
346.7213, 2.375092
347.2034, 2.219936
347.6855, 2.089878
348.1676, 1.984894
348.6497, 1.892994
349.1318, 1.809891
349.6140, 1.741787
350.0961, 1.717651
350.5782, 1.711647
351.0603, 1.659290
351.5424, 1.517551
352.0245, 1.314396
352.5067, 1.168945
352.9888, 1.134102
353.4709, 1.090317
353.9530, 1.037792
354.4351, 0.9644890
354.9172, 0.8349460
355.3994, 0.6399080
355.8815, 0.4384460
356.3636, 0.3305630
356.8457, 0.3646430
357.3278, 0.4004780
357.8099, 0.4953580
358.2920, 0.5493090
358.7741, 0.4524990
359.2563, 0.2234570
359.7384, 3.3040000E-03
360.2205, 9.8095000E-02
360.7026, 5.0716002E-02
361.1847, 3.4538001E-02
361.6668, 0.2411350
362.1490, 0.3968240
362.6311, 0.4311220
363.1132, 0.3731160
363.5953, 0.2683560
364.0774, 0.1362760
364.5595, 3.3420001E-03
365.0417, 1.4626000E-02
365.5238, 0.1620520
366.0059, 0.3539350
366.4880, 0.6164700
366.9701, 0.8447420
367.4522, 0.9183960
367.9344, 0.8048290
368.4165, 0.5978430
368.8986, 0.4235530
369.3807, 0.2535170
369.8628, 0.2027890
370.3449, 0.4803240
370.8271, 0.6994320
371.3092, 0.5903550
371.7913, 0.1998480
372.2734, 0.1982690
372.7555, 0.3498500
373.2376, 0.2635840
373.7198, 0.2417980
374.2019, 0.3800540
374.6840, 0.4628260
375.1661, 0.3687520
375.6482, 0.1876260
376.1303, 7.1952999E-02
376.6125, 0.1138080
377.0946, 0.2183150
377.5767, 0.1275940
378.0588, 0.2941280
378.5409, 0.5213280
379.0230, 0.1831970
379.5052, 0.2666020
379.9873, 0.4802740
380.4694, 0.3892170
380.9515, 0.1629370
381.4336, 8.8408999E-02
381.9157, 0.3623660
382.3979, 0.4874080
382.8800, 0.3223610
383.3621, 0.1414070
383.8442, 0.1519930
384.3263, 0.3092420
384.8084, 0.4456180
385.2906, 0.4283070
385.7727, 0.3346440
386.2548, 0.3502880
386.7369, 0.4997600
387.2190, 0.6711010
387.7011, 0.8587610
388.1833, 1.012192
388.6654, 1.035763
389.1475, 0.8532300
389.6296, 0.6442830
390.1117, 0.5528030
390.5938, 0.5725020
391.0760, 0.6795350
391.5581, 0.9401130
392.0402, 1.191223
392.5223, 1.187351
393.0044, 0.9156610
393.4865, 0.6411710
393.9687, 0.3978350
394.4508, 0.2381780
394.9329, 0.2935910
395.4150, 0.6004410
395.8971, 0.9384800
396.3792, 1.126286
396.8614, 1.165676
397.3435, 1.170399
397.8256, 1.105141
398.3077, 1.040962
398.7898, 1.021633
399.2719, 1.042381
399.7540, 1.081093
400.2361, 1.125473
400.7183, 1.182297
401.2004, 1.279469
401.6825, 1.482807
402.1646, 1.606663
402.6467, 1.547680
403.1288, 1.425209
403.6110, 1.371014
404.0931, 1.416321
404.5752, 1.524147
405.0573, 1.663189
405.5394, 1.853096
406.0215, 1.963413
406.5037, 1.898922
406.9858, 1.855713
407.4679, 1.984886
407.9500, 2.218380
408.4321, 2.359047
408.9142, 2.270947
409.3964, 2.026154
409.8785, 1.960045
410.3606, 2.319962
410.8427, 2.540874
411.3248, 2.507141
411.8069, 2.354568
412.2891, 2.179066
412.7712, 2.019714
413.2533, 1.914452
413.7354, 1.924873
414.2175, 2.080879
414.6996, 2.233017
415.1818, 2.428951
415.6639, 2.574909
416.1460, 2.607323
416.6281, 2.557961
417.1102, 2.500359
417.5923, 2.472630
418.0745, 2.473793
418.5566, 2.518620
419.0387, 2.610889
419.5208, 2.739304
420.0029, 2.994152
420.4850, 3.232147
420.9672, 3.296204
421.4493, 3.145649
421.9314, 2.927086
422.4135, 2.763557
422.8956, 2.655819
423.3777, 2.616428
423.8599, 2.666985
424.3420, 2.759693
424.8241, 2.902775
425.3062, 3.065777
425.7883, 3.133579
426.2704, 2.982708
426.7526, 2.743198
427.2347, 2.603939
427.7168, 2.568027
428.1989, 2.579819
428.6810, 2.611912
429.1631, 2.677204
429.6453, 2.819454
430.1274, 3.128136
430.6095, 3.280853
431.0916, 2.967762
431.5737, 2.419197
432.0558, 2.108135
432.5380, 2.170422
433.0201, 2.407921
433.5022, 2.604286
433.9843, 2.746819
434.4664, 2.884041
434.9485, 3.113243
435.4307, 3.259468
435.9128, 3.105324
436.3949, 2.736851
436.8770, 2.490376
437.3591, 2.573990
437.8412, 2.865307
438.3234, 2.911667
438.8055, 2.424168
439.2876, 2.068092
439.7697, 1.939930
440.2518, 1.923222
440.7339, 1.927174
441.2160, 1.925453
441.6982, 1.922981
442.1803, 1.930351
442.6624, 1.955528
443.1445, 1.932953
443.6266, 1.724747
444.1087, 1.613010
444.5909, 1.776268
445.0730, 2.078094
445.5551, 2.293915
446.0372, 2.304726
446.5193, 2.181885
447.0014, 2.077972
447.4836, 2.000549
447.9657, 1.919693
448.4478, 1.781448
448.9299, 1.673603
449.4120, 1.682518
449.8941, 1.797806
450.3763, 1.900517
450.8584, 1.888153
451.3405, 1.785442
451.8226, 1.689152
452.3047, 1.587425
452.7868, 1.527290
453.2690, 1.561443
453.7511, 1.648960
454.2332, 1.751072
454.7153, 1.904152
455.1974, 1.982132
455.6795, 1.833206
456.1617, 1.506207
456.6438, 1.195728
457.1259, 0.9326780
457.6080, 0.7556990
458.0901, 0.7487680
458.5722, 0.9068530
459.0544, 1.074341
459.5365, 1.271633
460.0186, 1.433067
460.5007, 1.493656
460.9828, 1.459785
461.4649, 1.374489
461.9471, 1.249050
462.4292, 1.106995
462.9113, 1.045097
463.3934, 1.145550
463.8755, 1.212715
464.3576, 1.136681
464.8398, 1.064480
465.3219, 1.223869
465.8040, 1.619083
466.2861, 1.957779
466.7682, 1.885792
467.2503, 1.342022
467.7325, 1.034584
468.2146, 1.184246
468.6967, 1.308201
469.1788, 1.206276
469.6609, 1.022392
470.1430, 0.9936830
470.6252, 1.218311
471.1073, 1.519997
471.5894, 1.569992
472.0715, 1.288536
472.5536, 1.115086
473.0357, 1.220913
473.5179, 1.361855
474.0000, 1.395771
474.4821, 1.337677
474.9642, 1.283504
475.4463, 1.300056
475.9284, 1.355808
476.4106, 1.389599
476.8927, 1.404938
477.3748, 1.370689
477.8569, 1.211792
478.3390, 1.028473
478.8211, 0.9788170
479.3033, 1.092957
479.7854, 1.252373
480.2675, 1.445160
480.7496, 1.631516
481.2317, 1.738613
481.7138, 1.767925
482.1959, 1.729046
482.6780, 1.602097
483.1602, 1.408428
483.6423, 1.334648
484.1244, 1.573521
484.6065, 1.717613
485.0886, 1.487122
485.5707, 1.071594
486.0529, 0.8274920
486.5350, 0.8970450
487.0171, 1.095722
487.4992, 1.122009
487.9813, 0.9049840
488.4634, 0.7747610
488.9456, 0.8103140
489.4277, 0.8446580
489.9098, 0.7908210
490.3919, 0.6750830
490.8740, 0.5636250
491.3561, 0.4947360
491.8383, 0.4730220
492.3204, 0.5036200
492.8025, 0.6241420
493.2846, 0.6941410
493.7667, 0.6637950
494.2488, 0.5868420
494.7310, 0.4516450
495.2131, 0.2788090
495.6952, 0.1860620
496.1773, 0.3212130
496.6594, 0.5941010
497.1415, 0.7607540
497.6237, 0.8104780
498.1058, 0.7799190
498.5879, 0.6033860
499.0700, 0.3916590
499.5521, 0.3790780
500.0342, 0.6795620
500.5164, 0.9446300
500.9985, 0.9497110
501.4806, 0.8160020
501.9627, 0.7905880
502.4448, 0.9244960
502.9269, 1.029819
503.4091, 0.9050790
503.8912, 0.5419390
504.3733, 0.3611760
504.8554, 0.5049970
505.3375, 0.6528470
505.8196, 0.7157290
506.3018, 0.7124060
506.7839, 0.3717380
507.2660, 0.7767370
507.7481, 1.016029
508.2302, 1.099228
508.7123, 0.5596660
509.1945, 0.8250350
509.6766, 0.7701230
510.1587, 0.7017250
510.6408, 1.080513
511.1229, 0.6319430
511.6050, 1.002464
512.0872, 1.045696
512.5693, 0.8657720
513.0514, 0.9281270
513.5335, 1.214375
514.0156, 1.347759
514.4977, 1.132759
514.9799, 0.8566090
515.4620, 0.7888070
515.9441, 0.8969350
516.4262, 0.9454800
516.9083, 0.7573130
517.3904, 0.4968870
517.8726, 0.3819240
518.3547, 0.4101100
518.8368, 0.4933780
519.3189, 0.6212230
519.8010, 0.7363320
520.2831, 0.7925490
520.7653, 0.8170660
521.2474, 0.7427830
521.7295, 0.4193840
522.2116, 8.8050999E-02
522.6937, 2.8316000E-02
523.1758, 0.2081950
523.6580, 0.3408810
524.1401, 0.2016600
524.6222, 0.1315160
525.1043, 0.2457920
525.5864, 0.1452140
526.0685, 0.3482740
526.5507, 0.1375620
527.0328, 0.1588970
527.5149, 0.2781300
527.9970, 0.1912040
528.4791, 2.6810000E-02
528.9612, 0.1246410
529.4434, 0.2585980
529.9255, 0.3414960
530.4076, 0.3488730
530.8897, 0.3614880
531.3718, 0.4690210
531.8539, 0.5729870
532.3361, 0.5397680
532.8182, 0.3259320
533.3003, 0.1438330
533.7824, 0.1862410
534.2645, 0.3483890
534.7466, 0.3951070
535.2288, 0.2906490
535.7109, 0.1519810
536.1930, 4.9911000E-02
536.6751, 1.7470000E-03
537.1572, 1.6124999E-02
537.6393, 0.2026790
538.1215, 0.2880400
538.6036, 5.9273001E-02
539.0857, 0.2332380
539.5678, 0.2107320
540.0499, 0.1714550
540.5320, 0.5736810
541.0142, 0.6210630
541.4963, 0.3000790
541.9784, 0.1033900
542.4604, 0.1876600
542.9426, 0.2147600
543.4247, 5.9699998E-03
543.9068, 0.2631260
544.3889, 0.2655220
544.8710, 5.1346000E-02
545.3531, 0.4043540
545.8353, 0.4612920
546.3174, 0.2481160
546.7995, 5.9829999E-02
547.2816, 0.1125640
547.7637, 0.2073480
548.2458, 0.1285400
548.7280, 4.2305000E-02
549.2101, 0.1833650
549.6922, 0.2790340
550.1743, 0.3319130
550.6564, 0.3093410
551.1385, 0.2525710
551.6207, 0.2665790
552.1028, 0.3738750
552.5849, 0.4609990
553.0670, 0.4086340
553.5491, 0.2162820
554.0313, 0.1027070
554.5134, 0.1483040
554.9955, 0.1630130
555.4776, 3.0777000E-02
555.9597, 0.1318660
556.4418, 0.1581310
556.9240, 1.6349999E-02
557.4061, 0.1679380
557.8882, 0.2546650
558.3703, 0.2405970
558.8524, 0.1689030
559.3345, 5.3181000E-02
559.8167, 0.1958080
560.2988, 0.1525380
560.7809, 1.1620000E-02
561.2630, 0.1517260
561.7451, 0.3276180
562.2272, 0.4136120
562.7094, 0.2128870
563.1915, 0.1571460
563.6736, 0.2720070
564.1557, 4.6562001E-02
564.6378, 0.2524870
565.1199, 0.4858470
565.6021, 0.6313100
566.0842, 0.6320150
566.5663, 0.3376460
567.0484, 0.1142850
567.5305, 0.1273270
568.0126, 0.2611120
568.4948, 0.4054300
568.9769, 0.5241700
569.4590, 0.5637400
569.9411, 0.4491000
570.4232, 0.1968150
570.9053, 0.1375390
571.3875, 0.5155560
571.8696, 0.7592050
572.3517, 0.7179150
572.8338, 0.5497740
573.3159, 0.3545950
573.7980, 0.1705590
574.2802, 7.1696997E-02
574.7623, 0.2170030
575.2444, 0.5130120
575.7265, 0.5049670
576.2086, 9.1084003E-02
576.6907, 0.1889570
577.1729, 5.8010001E-02
577.6550, 0.5119550
578.1371, 0.6198880
578.6192, 0.2800560
579.1013, 1.4938000E-02
579.5834, 9.8311998E-02
580.0656, 0.3137510
580.5477, 0.4081540
581.0298, 0.3760830
581.5119, 0.3543470
581.9940, 0.4334300
582.4761, 0.5726130
582.9583, 0.6528280
583.4404, 0.6620600
583.9225, 0.6656880
584.4046, 0.6930080
584.8867, 0.6834220
585.3688, 0.5782280
585.8510, 0.4156570
586.3331, 0.2801630
586.8152, 0.2135890
587.2973, 0.1969180
587.7794, 0.1948930
588.2615, 0.2090640
588.7437, 0.2269940
589.2258, 0.2488780
589.7079, 0.2701070
590.1900, 0.2848400
590.6721, 0.2944370
591.1542, 0.3071860
591.6364, 0.3522450
592.1185, 0.3803440
592.6006, 0.3470190
593.0827, 0.2620580
593.5648, 0.1162640
594.0469, 0.1052360
594.5291, 0.2557260
595.0112, 9.7244002E-02
595.4933, 0.4879300
595.9754, 0.8495750
596.4575, 0.9035800
596.9396, 0.8465390
597.4218, 0.7259750
597.9039, 0.5892070
598.3860, 0.4501230
598.8681, 0.3188020
599.3502, 0.2074010
599.8323, 0.1117130
600.3145, 3.5305001E-02
600.7966, 7.9308003E-02
601.2787, 0.3131790
601.7608, 0.5031050
602.2429, 0.4825170
602.7250, 0.3884850
603.2072, 0.3899460
603.6893, 0.5404550
604.1714, 0.6826820
604.6535, 0.7627140
605.1356, 0.7656170
605.6177, 0.6504330
606.0999, 0.4385190
606.5820, 0.2584230
607.0641, 0.1960980
607.5462, 0.2221760
608.0283, 0.2074170
608.5104, 6.7036003E-02
608.9926, 9.2540001E-03
609.4747, 0.1299290
609.9568, 0.2626080
610.4389, 0.2546160
610.9210, 0.1427990
611.4031, 9.2120998E-02
611.8853, 0.2225760
612.3674, 0.4536930
612.8495, 0.6493110
613.3316, 0.8172190
613.8137, 0.7924650
614.2958, 0.4093890
614.7780, 1.8951001E-02
615.2601, 1.6788000E-02
615.7422, 0.3290520
616.2243, 0.5536380
616.7064, 0.5788190
617.1885, 0.5138660
617.6707, 0.3760830
618.1528, 0.2234990
618.6349, 0.1615520
619.1170, 0.2144700
619.5991, 0.3044360
620.0812, 0.3341750
620.5634, 0.2909890
621.0455, 0.3499980
621.5276, 0.6901780
622.0097, 0.9527470
622.4918, 1.003681
622.9739, 0.9555360
623.4561, 0.9435540
623.9382, 0.9885220
624.4203, 0.9855920
624.9023, 0.7194940
625.3845, 0.3601230
625.8666, 0.4587020
626.3487, 1.073410
626.8308, 1.556362
627.3129, 1.576942
627.7950, 1.329967
628.2772, 1.162422
628.7593, 1.076405
629.2414, 1.037857
629.7235, 1.067844
630.2056, 1.115089
630.6877, 1.143299
631.1699, 1.158852
631.6520, 1.175594
632.1341, 1.199062
632.6162, 1.257793
633.0983, 1.413586
633.5804, 1.702782
634.0626, 1.889370
634.5447, 1.884838
635.0268, 1.888729
635.5089, 1.983376
635.9910, 2.113724
636.4731, 2.196732
636.9553, 2.200764
637.4374, 2.196846
637.9195, 2.240135
638.4016, 2.299702
638.8837, 2.285999
639.3658, 2.195793
639.8480, 2.194664
640.3301, 2.407158
640.8122, 2.767918
641.2943, 3.063911
641.7764, 3.325645
642.2585, 3.464081
642.7407, 3.366924
643.2228, 3.246613
643.7049, 3.215008
644.1870, 3.275120
644.6691, 3.409416
645.1512, 3.620346
645.6334, 3.844196
646.1155, 3.976856
646.5976, 4.019020
647.0797, 4.028297
647.5618, 4.006580
648.0439, 3.964409
648.5261, 3.828011
649.0082, 3.678215
649.4903, 3.788929
649.9724, 4.423607
650.4545, 4.944466
650.9366, 5.017788
651.4188, 4.883381
651.9009, 4.812622
652.3830, 4.847816
652.8651, 4.957180
653.3472, 5.111683
653.8293, 5.273136
654.3115, 5.317928
654.7936, 5.092865
655.2757, 5.107632
655.7578, 5.741024
656.2399, 6.379883
656.7220, 6.688431
657.2042, 6.720280
657.6863, 6.691074
658.1684, 6.543526
658.6505, 6.486294
659.1326, 6.842049
659.6147, 7.459232
660.0969, 7.884853
660.5790, 8.022125
661.0611, 8.091064
661.5432, 8.287739
662.0253, 8.594975
662.5074, 8.824512
662.9896, 8.879784
663.4717, 8.985283
663.9538, 9.255203
664.4359, 9.508945
664.9180, 9.561111
665.4001, 9.462234
665.8823, 9.451817
666.3644, 9.707584
666.8465, 10.08479
667.3286, 10.31940
667.8107, 10.41531
668.2928, 10.52983
668.7750, 10.71288
669.2571, 10.88654
669.7392, 11.01329
670.2213, 11.07418
670.7034, 10.95274
671.1855, 10.52558
671.6677, 10.07021
672.1498, 9.611057
672.6319, 9.194908
673.1140, 8.901981
673.5961, 8.715897
674.0782, 8.506336
674.5604, 8.163296
675.0425, 7.740509
675.5246, 7.426220
676.0067, 7.255596
676.4888, 7.038635
676.9709, 6.731686
677.4531, 6.372757
677.9352, 5.979534
678.4173, 5.561642
678.8994, 5.154499
679.3815, 4.759018
679.8636, 4.385818
680.3458, 4.003826
680.8279, 3.662914
681.3100, 3.500370
681.7921, 3.493904
682.2742, 3.443165
682.7563, 3.158215
683.2385, 2.712589
683.7206, 2.445778
684.2027, 2.453651
684.6848, 2.452522
685.1669, 2.418274
685.6490, 2.337868
686.1312, 2.152214
686.6133, 1.918739
687.0954, 1.807495
687.5775, 1.962673
688.0596, 2.117287
688.5417, 1.958946
689.0239, 1.631348
689.5060, 1.501305
689.9881, 1.630051
690.4702, 1.773251
690.9523, 1.740013
691.4344, 1.561905
691.9166, 1.395576
692.3987, 1.248383
692.8808, 1.101707
693.3629, 0.9257580
693.8450, 0.7769170
694.3271, 0.7196620
694.8093, 0.7156830
695.2914, 0.6578940
695.7735, 0.4839250
696.2556, 0.3148880
696.7377, 0.3048590
697.2198, 0.4126360
697.7020, 0.5074840
698.1841, 0.5694500
698.6662, 0.6106070
699.1483, 0.6400760
699.6304, 0.6548690
700.1125, 0.6430550
700.5947, 0.6014750
701.0768, 0.5372010
701.5589, 0.4252780
702.0410, 0.3145100
702.5231, 0.2086720
703.0052, 0.1322710
703.4874, 0.1361850
703.9695, 0.2559550
704.4516, 0.4149210
704.9337, 0.5353780
705.4158, 0.6161310
705.8979, 0.6643370
706.3801, 0.6861500
706.8622, 0.6185950
707.3442, 0.3731730
707.8264, 5.0877001E-02
708.3085, 7.4859999E-02
708.7906, 0.1049230
709.2727, 0.1899830
709.7548, 7.6366000E-02
710.2369, 6.3479997E-02
710.7191, 0.1632580
711.2012, 0.2066150
711.6833, 0.1799550
712.1654, 7.8377001E-02
712.6475, 8.3159998E-02
713.1296, 0.3934520
713.6118, 0.7763900
714.0939, 0.7156520
714.5760, 0.1026610
715.0581, 0.3353420
715.5402, 0.1831050
716.0223, 0.2418370
716.5045, 0.4064180
716.9866, 3.5645001E-02
717.4687, 0.3685720
717.9508, 0.5942690
718.4329, 0.6510310
718.9150, 3.2889999E-02
719.3972, 0.2862360
719.8793, 0.1903230
720.3614, 8.0077998E-02
720.8435, 0.4560740
721.3256, 6.3931003E-02
721.8077, 0.3043020
722.2899, 0.3179400
722.7720, 0.4938660
723.2541, 0.3183860
723.7362, 0.2514460
724.2183, 0.5360220
724.7004, 0.6259690
725.1826, 0.4100340
725.6647, 0.5962870
726.1468, 6.3971996E-02
726.6289, 0.1622160
727.1110, 0.5325160
727.5931, 0.3342550
728.0753, 0.5269430
728.5574, 0.5707360
729.0395, 6.2111001E-02
729.5216, 0.4817310
730.0037, 0.5166740
730.4858, 2.9095000E-02
730.9680, 0.5326230
731.4501, 0.1170850
731.9322, 2.9598000E-02
732.4143, 0.1889840
732.8964, 9.1007002E-02
733.3785, 0.3988000
733.8607, 0.3156850
734.3428, 0.1976550
734.8249, 0.2320210
735.3070, 0.1258350
735.7891, 0.2382470
736.2712, 9.4650000E-02
736.7534, 0.2231330
737.2355, 0.4132690
737.7176, 0.1312290
738.1997, 0.3490750
738.6818, 0.2082820
739.1639, 0.1171150
739.6461, 9.5852003E-02
740.1282, 0.1141970
740.6103, 0.1329190
741.0924, 2.4940001E-02
741.5745, 0.1374240
742.0566, 0.1953470
742.5388, 0.1419180
743.0209, 2.2632999E-02
743.5030, 0.2612610
743.9851, 0.5042840
744.4672, 0.5955090
744.9493, 0.5753590
745.4315, 0.4823530
745.9136, 0.3408430
746.3957, 0.2396740
746.8778, 0.3115390
747.3599, 0.4831730
747.8420, 0.5050580
748.3242, 0.3725970
748.8063, 0.2796970
749.2884, 0.2940410
749.7705, 0.3668750
750.2526, 0.4662060
750.7347, 0.5979160
751.2169, 0.6079140
751.6990, 0.4265820
752.1811, 0.2251050
752.6632, 3.8467001E-02
753.1453, 0.2496570
753.6274, 0.2818760
754.1096, 0.1564030
754.5917, 3.5359999E-03
755.0738, 0.1064720
755.5559, 0.2040210
756.0380, 0.3531880
756.5201, 0.5311780
757.0023, 0.6379970
757.4844, 0.6578290
757.9665, 0.5974810
758.4486, 0.4365880
758.9307, 0.2230450
759.4128, 0.1224060
759.8950, 0.2630580
760.3771, 0.2811930
760.8592, 3.6781002E-02
761.3413, 0.1744540
761.8234, 0.2039910
762.3055, 0.1112060
762.7877, 9.0290001E-03
763.2698, 0.1320300
763.7519, 0.2513690
764.2340, 0.3618510
764.7161, 0.4659390
765.1982, 0.5803530
765.6804, 0.6968920
766.1625, 0.7693560
766.6446, 0.7960970
767.1267, 0.7500920
767.6088, 0.5762210
768.0909, 0.2554510
768.5731, 0.1432880
769.0552, 0.4115180
769.5373, 0.6215520
770.0194, 0.6403690
770.5015, 0.6046710
770.9836, 0.6429330
771.4658, 0.7275890
771.9479, 0.6845090
772.4300, 0.2947040
772.9121, 4.9313001E-02
773.3942, 7.2017998E-02
773.8763, 0.4182930
774.3585, 0.5942000
774.8406, 0.5603370
775.3227, 0.5032880
775.8048, 0.5372120
776.2869, 0.6238020
776.7690, 0.6767730
777.2512, 0.6962010
777.7333, 0.6739390
778.2154, 0.5506860
778.6975, 0.4970250
779.1796, 0.6950230
779.6617, 0.9853320
780.1439, 1.065948
780.6260, 0.8875120
781.1081, 0.7073750
781.5902, 0.5037080
782.0723, 0.4004360
782.5544, 0.5717700
783.0366, 0.8641400
783.5187, 1.009838
784.0008, 0.9493370
784.4829, 0.8473050
784.9650, 0.8642540
785.4471, 0.9497490
785.9293, 0.9386100
786.4114, 0.8290670
786.8935, 0.7468530
787.3756, 0.7382850
787.8577, 0.7531390
788.3398, 0.7374840
788.8220, 0.7043150
789.3040, 0.7633360
789.7861, 1.072384
790.2682, 1.243114
790.7504, 1.129173
791.2325, 0.9778480
791.7146, 0.9144820
792.1967, 0.9467930
792.6788, 1.094700
793.1609, 1.386776
793.6431, 1.602440
794.1252, 1.432198
794.6073, 1.101414
795.0894, 1.109619
795.5715, 1.415066
796.0536, 1.526752
796.5358, 1.215115
797.0179, 0.7798500
797.5000, 0.6065330
797.9821, 0.7108420
798.4642, 0.7926370
798.9464, 0.8215870
799.4285, 0.8749280
799.9106, 1.098885
800.3927, 1.270138
800.8748, 1.127502
801.3569, 0.7483180
801.8391, 0.5472220
802.3212, 0.7456890
802.8033, 0.9788250
803.2854, 1.059864
803.7675, 1.071011
804.2496, 1.095360
804.7318, 1.144676
805.2139, 1.233677
805.6960, 1.376762
806.1781, 1.467037
806.6602, 1.250355
807.1423, 0.7642520
807.6245, 0.5721320
808.1066, 0.7485850
808.5887, 0.9579090
809.0708, 1.081894
809.5529, 1.120323
810.0350, 1.043682
810.5172, 0.8149570
810.9993, 0.6974980
811.4814, 0.8033640
811.9635, 0.9075360
812.4456, 0.9463420
812.9277, 0.9485660
813.4099, 0.9358480
813.8920, 0.9191440
814.3741, 0.9188770
814.8562, 0.9507220
815.3383, 0.9911350
815.8204, 1.049149
816.3026, 1.088467
816.7847, 0.6660650
817.2668, 1.077576
817.7489, 1.310596
818.2310, 1.374737
818.7131, 0.7640300
819.1953, 1.016472
819.6774, 0.9181480
820.1595, 0.8106310
820.6416, 1.194248
821.1237, 0.6819270
821.6058, 1.057926
822.0880, 1.079391
822.5701, 1.263180
823.0522, 1.095600
823.5343, 1.036610
824.0164, 1.329231
824.4985, 1.427242
824.9807, 1.219433
825.4628, 1.413837
825.9449, 0.8897550
826.4270, 0.9963420
826.9091, 1.375122
827.3912, 1.185463
827.8734, 1.386810
828.3555, 1.439304
828.8376, 0.8152120
829.3197, 1.367935
829.8018, 1.411800
830.2839, 0.9331820
830.7661, 1.444992
831.2482, 1.038692
831.7303, 0.9605060
832.2124, 1.129250
832.6945, 1.040688
833.1766, 1.357944
833.6588, 1.284336
834.1409, 1.175858
834.6230, 1.219872
835.1051, 1.123390
835.5872, 1.245583
836.0693, 1.112610
836.5515, 1.258255
837.0336, 1.462460
837.5157, 1.190395
837.9978, 1.418274
838.4799, 0.8709680
838.9620, 0.9723660
839.4442, 1.003960
839.9263, 1.450207
840.4084, 0.9068680
840.8905, 0.9904210
841.3726, 1.248806
841.8547, 1.134613
842.3369, 0.8810230
842.8190, 0.7695920
843.3011, 0.9499630
843.7832, 1.171249
844.2653, 1.113495
844.7474, 0.7539710
845.2296, 0.6582790
845.7117, 1.066948
846.1938, 1.396683
846.6759, 1.662601
847.1580, 1.775673
847.6401, 1.562191
848.1223, 1.175034
848.6044, 0.9598120
849.0865, 1.034718
849.5686, 1.146866
850.0507, 1.158592
850.5328, 1.143517
851.0150, 1.213505
851.4971, 1.305988
851.9792, 1.242672
852.4613, 0.9941410
852.9434, 0.8149950
853.4255, 0.9987640
853.9077, 1.413525
854.3898, 1.647579
854.8719, 1.697262
855.3540, 1.657200
855.8361, 1.536713
856.3182, 1.344757
856.8004, 1.034657
857.2825, 0.6983380
857.7646, 0.6493990
858.2467, 1.120693
858.7288, 1.372692
859.2109, 1.248875
859.6931, 1.095108
860.1752, 0.9784160
860.6573, 0.9284020
861.1394, 1.021019
861.6215, 1.244579
862.1036, 1.390469
862.5858, 1.317562
863.0679, 1.201527
863.5500, 1.100048
864.0321, 1.063553
864.5142, 1.240311
864.9963, 1.584351
865.4785, 1.779308
865.9606, 1.611137
866.4427, 1.351238
866.9248, 1.494312
867.4069, 1.920334
867.8890, 1.916569
868.3712, 1.427513
868.8533, 1.011002
869.3354, 0.9012220
869.8175, 0.9476590
870.2996, 0.9557040
870.7817, 0.9261740
871.2639, 0.9508970
871.7459, 1.114105
872.2280, 1.188442
872.7101, 1.072983
873.1923, 0.9237820
873.6744, 0.8133280
874.1565, 0.7258380
874.6386, 0.6216160
875.1207, 0.4723820
875.6028, 0.3759920
876.0850, 0.4240260
876.5671, 0.4824940
877.0492, 0.4047970
877.5313, 0.2853700
878.0134, 0.3248600
878.4955, 0.5459290
878.9777, 0.7370300
879.4598, 0.6989900
879.9419, 0.5773120
880.4240, 0.6272050
880.9061, 0.8016360
881.3882, 0.9505080
881.8704, 1.044868
882.3525, 1.027573
882.8346, 0.8471300
883.3167, 0.5977630
883.7988, 0.4793400
884.2809, 0.5066150
884.7631, 0.5701600
885.2452, 0.7082600
885.7273, 0.8255080
886.2094, 0.9279170
886.6915, 0.9593120
887.1736, 0.7812840
887.6558, 0.4198530
888.1379, 0.2111550
888.6200, 0.2909390
889.1021, 0.3458440
889.5842, 0.2956430
890.0663, 0.2521630
890.5485, 0.3058970
891.0306, 0.4211920
891.5127, 0.5491600
891.9948, 0.6904790
892.4769, 0.7044180
892.9590, 0.3568500
893.4412, 4.2796999E-02
893.9233, 0.1898500
894.4054, 0.1276630
894.8875, 0.1243360
895.3696, 0.5045660
895.8517, 0.7186930
896.3339, 0.5154230
896.8160, 0.1260640
897.2981, 4.6799000E-02
897.7802, 0.2395940
898.2623, 0.2860410
898.7444, 0.1302190
899.2266, 9.0747997E-02
899.7087, 0.3725890
900.1908, 0.6828730
900.6729, 0.5384670
901.1550, 9.5875002E-02
901.6371, 0.3755380
902.1193, 7.7656001E-02
902.6014, 0.1588360
903.0835, 0.1712460
903.5656, 0.1307110
904.0477, 0.1586420
904.5298, 0.2228360
905.0120, 0.2313800
905.4941, 0.1388020
905.9762, 9.5633999E-02
906.4583, 0.2319150
906.9404, 0.3292880
907.4225, 0.1888920
907.9047, 3.5656001E-02
908.3868, 0.1105270
908.8689, 1.6277000E-02
909.3510, 6.8282999E-02
909.8331, 3.5191000E-02
910.3152, 4.6978001E-02
910.7974, 0.1664660
911.2795, 0.2616500
911.7616, 0.1711620
912.2437, 7.3409997E-02
912.7258, 0.2560200
913.2079, 0.2737500
913.6901, 0.2383350
914.1722, 0.3155560
914.6543, 0.3268970
915.1364, 0.3386990
915.6185, 0.4187970
916.1006, 0.3727260
916.5828, 0.4315030
917.0649, 0.4559100
917.5470, 0.3056410
918.0291, 4.0413000E-02
918.5112, 3.7014000E-02
918.9933, 0.1870080
919.4755, 0.3178600
919.9576, 0.2965430
920.4397, 0.2492220
920.9218, 0.2516780
921.4039, 0.2495570
921.8860, 0.1155550
922.3682, 0.1362300
922.8503, 0.1807670
923.3324, 0.2894440
923.8145, 0.6163640
924.2966, 0.4537770
924.7787, 0.2238200
925.2609, 0.3176420
925.7430, 0.5926700
926.2251, 0.6890180
926.7072, 0.4974520
927.1893, 0.2659840
927.6714, 9.2635997E-02
928.1536, 2.0718001E-02
928.6357, 0.2070690
929.1178, 0.4816360
929.5999, 0.4786800
930.0820, 0.1915400
930.5641, 4.5093998E-02
931.0463, 1.8166000E-02
931.5284, 0.1372030
932.0105, 0.2177620
932.4926, 0.2442090
932.9747, 0.3159940
933.4568, 0.4304160
933.9390, 0.4846610
934.4211, 0.4378010
934.9032, 0.3869320
935.3853, 0.4475980
935.8674, 0.5902980
936.3495, 0.6286810
936.8317, 0.5313990
937.3138, 0.4689480
937.7959, 0.4727750
938.2780, 0.4864460
938.7601, 0.4826580
939.2422, 0.4655490
939.7244, 0.4510420
940.2065, 0.4505000
940.6886, 0.3879430
941.1707, 5.1867999E-02
941.6528, 5.6701999E-02
942.1349, 0.4742050
942.6171, 0.9776500
943.0992, 0.8411450
943.5813, 0.2987020
944.0634, 2.5177000E-02
944.5455, 0.2359090
945.0276, 0.3887860
945.5098, 0.1362300
945.9919, 7.1354002E-02
946.4740, 0.1756670
946.9561, 0.5911250
947.4382, 0.7933730
947.9203, 0.7323000
948.4025, 0.5415190
948.8846, 0.2290690
949.3667, 2.5208000E-02
949.8488, 2.7550001E-02
950.3309, 0.1247060
950.8130, 0.3619500
951.2952, 0.6106800
951.7773, 0.6430660
952.2594, 0.4135510
952.7415, 0.1945840
953.2236, 0.2607500
953.7057, 0.4942320
954.1878, 0.6190610
954.6699, 0.6492040
955.1520, 0.6896820
955.6342, 0.7550280
956.1163, 0.7360040
956.5984, 0.5587270
957.0805, 0.3522720
957.5626, 0.3389590
958.0447, 0.5139580
958.5269, 0.5981140
959.0090, 0.5725860
959.4911, 0.5041730
959.9732, 0.4368400
960.4553, 0.3659590
960.9374, 0.2763440
961.4196, 0.2001230
961.9017, 0.2408600
962.3838, 0.4738850
962.8659, 0.5892520
963.3480, 0.5041050
963.8301, 0.4111710
964.3123, 0.3354380
964.7944, 0.2936060
965.2765, 0.3199540
965.7586, 0.3952900
966.2407, 0.4344440
966.7228, 0.4161800
967.2050, 0.4068950
967.6871, 0.4457440
968.1692, 0.4685170
968.6513, 0.4158520
969.1334, 0.3323670
969.6155, 0.2735330
970.0977, 0.2571680
970.5798, 0.3031310
971.0619, 0.4839710
971.5440, 0.6345370
972.0261, 0.6361080
972.5082, 0.5668030
972.9904, 0.5103610
973.4725, 0.4533120
973.9546, 0.3032840
974.4367, 5.2910000E-02
974.9188, 8.6658001E-02
975.4009, 0.1770400
975.8831, 0.5044020
976.3652, 0.3397980
976.8473, 7.3749997E-02
977.3294, 0.2327040
977.8115, 0.1043470
978.2936, 0.1284870
978.7758, 0.3786770
979.2579, 0.5650330
979.7400, 0.5486220
980.2221, 0.3908350
980.7042, 0.3605920
981.1863, 0.4535220
981.6685, 0.4668580
982.1506, 0.3639220
982.6327, 0.2907640
983.1148, 0.3497580
983.5969, 0.4620970
984.0790, 0.4841080
984.5612, 0.4158900
985.0433, 0.2630620
985.5254, 6.1989999E-03
986.0075, 0.1762850
986.4896, 0.1928440
986.9717, 6.2050000E-02
987.4539, 0.2723920
987.9360, 0.6967120
988.4181, 0.8332250
988.9002, 0.6063800
989.3823, 0.3930130
989.8644, 0.1489910
990.3466, 1.0174000E-02
990.8287, 1.9661000E-02
991.3108, 3.7300002E-02
991.7929, 7.5778998E-02
992.2750, 0.1086580
992.7571, 0.2170220
993.2393, 0.5227390
993.7214, 0.6845320
994.2035, 0.6333270
994.6856, 0.5158160
995.1677, 0.3159750
995.6498, 0.1283150
996.1320, 3.9391000E-02
996.6141, 5.3870998E-02
997.0962, 0.1678050
997.5783, 0.5062140
998.0604, 0.7335550
998.5425, 0.6357380
999.0247, 0.5331120
999.5068, 0.6939390
999.9889, 0.9543910
1000.471, 1.038063
1000.953, 0.9156720
1001.435, 0.7273750
1001.917, 0.4401660
1002.399, 0.2359620
1002.882, 0.2858090
1003.364, 0.3852460
1003.846, 0.2990840
1004.328, 0.1366350
1004.810, 0.1084520
1005.292, 0.2552110
1005.774, 0.3967090
1006.256, 0.4170880
1006.739, 0.3889770
1007.221, 0.3365100
1007.703, 0.3018950
1008.185, 0.3854100
1008.667, 0.5305600
1009.149, 0.5544430
1009.631, 0.4055020
1010.113, 0.2753680
1010.595, 8.3651997E-02
1011.078, 0.5173720
1011.560, 0.7727320
1012.042, 0.8591460
1012.524, 0.2706410
1013.006, 0.5535850
1013.488, 0.4872590
1013.970, 0.4065900
1014.452, 0.8121340
1014.935, 0.3217160
1015.417, 0.7194980
1015.899, 0.7626800
1016.381, 0.9681170
1016.863, 0.8221360
1017.345, 0.7847750
1017.827, 1.098919
1018.309, 1.218395
1018.791, 1.031921
1019.274, 1.247486
1019.756, 0.7443770
1020.238, 0.8720740
1020.720, 1.274773
1021.202, 1.115788
1021.684, 1.338219
1022.166, 1.411377
1022.648, 0.8076930
1023.130, 1.393085
1023.613, 1.474453
1024.095, 1.016243
1024.577, 1.549110
1025.059, 1.162857
1025.541, 1.104664
1026.023, 1.293335
1026.505, 1.224659
1026.987, 1.561794
1027.469, 1.507919
1027.952, 1.419079
1028.434, 1.482769
1028.916, 1.405872
1029.398, 1.547585
1029.880, 1.433250
1030.362, 1.590981
1030.844, 1.810349
1031.326, 1.557507
1031.809, 1.550488
1032.291, 1.501244
1032.773, 1.355759
1033.255, 1.280319
1033.737, 1.273937
1034.219, 1.313324
1034.701, 1.401226
1035.183, 1.502949
1035.666, 1.649132
1036.148, 1.791744
1036.630, 1.794888
1037.112, 1.612244
1037.594, 1.544106
1038.076, 1.688370
1038.558, 1.789516
1039.040, 1.774734
1039.522, 1.735123
1040.005, 1.727848
1040.487, 1.736408
1040.969, 1.720135
1041.451, 1.666153
1041.933, 1.654037
1042.415, 1.681591
1042.897, 1.756149
1043.379, 2.014397
1043.861, 2.171452
1044.344, 1.952255
1044.826, 1.558868
1045.308, 1.397793
1045.790, 1.543140
1046.272, 1.565826
1046.754, 1.235161
1047.236, 1.000435
1047.718, 1.037792
1048.201, 1.148907
1048.683, 1.222549
1049.165, 1.269867
1049.647, 1.328075
1050.129, 1.407948
1050.611, 1.403942
1051.093, 1.184559
1051.575, 1.028290
1052.057, 1.067741
1052.540, 1.149822
1053.022, 1.173447
1053.504, 1.153637
1053.986, 1.133797
1054.468, 1.121944
1054.950, 1.088688
1055.432, 0.9926150
1055.914, 0.9267390
1056.396, 0.9576420
1056.879, 0.9911500
1057.361, 0.8961070
1057.843, 0.7795720
1058.325, 0.8647690
1058.807, 1.176182
1059.289, 1.330925
1059.771, 1.049423
1060.253, 0.8000030
1060.736, 0.7995110
1061.218, 0.8589290
1061.700, 0.8660280
1062.182, 0.8155170
1062.664, 0.6925090
1063.146, 0.5070880
1063.628, 0.3846510
1064.110, 0.4045790
1064.593, 0.4469640
1065.075, 0.5046880
1065.557, 0.5246890
1066.039, 0.3963200
1066.521, 0.2379880
1067.003, 0.2523420
1067.485, 0.4502030
1067.967, 0.6416780
1068.449, 0.7689510
1068.932, 0.8545190
1069.414, 0.9201390
1069.896, 0.9340060
1070.378, 0.8195190
1070.860, 0.6680530
1071.342, 0.6219750
1071.824, 0.6810190
1072.306, 0.7135730
1072.788, 0.6705130
1073.271, 0.5962830
1073.753, 0.4873120
1074.235, 0.3795360
1074.717, 0.3017010
1075.199, 0.2392580
1075.681, 0.1611020
1076.163, 7.4871004E-02
1076.645, 3.4832001E-02
1077.127, 8.3584003E-02
1077.610, 0.1017300
1078.092, 4.6383001E-02
1078.574, 0.1558990
1079.056, 1.2138000E-02
1079.538, 0.2276880
1080.020, 0.1259570
1080.502, 0.1947710
1080.984, 0.2714420
1081.467, 9.2674002E-02
1081.949, 0.4293790
1082.431, 0.5244140
1082.913, 0.5345150
1083.395, 0.5433200
1083.877, 0.5255280
1084.359, 0.4033510
1084.841, 0.2343250
1085.323, 0.1799810
1085.806, 0.2928660
1086.288, 0.4149590
1086.770, 0.5114630
1087.252, 0.5605700
1087.734, 0.5583270
1088.216, 0.4976080
1088.698, 0.3018340
1089.180, 6.4692996E-02
1089.662, 1.4767000E-02
1090.145, 0.1041910
1090.627, 0.2503090
1091.109, 0.3518600
1091.591, 0.4782450
1092.073, 0.7725030
1092.555, 0.9940530
1093.037, 0.8746030
1093.519, 0.5824740
1094.002, 0.4083060
1094.484, 0.3905030
1094.966, 0.3867110
1095.448, 0.3631210
1095.930, 0.3314900
1096.412, 0.2869190
1096.894, 0.2448920
1097.376, 0.2133940
1097.859, 0.1911090
1098.341, 0.1712150
1098.823, 0.1562770
1099.305, 0.1657750
1099.787, 0.2216220
1100.269, 0.2654150
1100.751, 0.2788660
1101.233, 0.2806660
1101.715, 0.3166770
1102.198, 0.3177530
1102.680, 0.1538160
1103.162, 0.1124840
1103.644, 0.2282180
1104.126, 0.1001210
1104.608, 4.5969998E-03
1105.090, 4.2721000E-02
1105.572, 5.1750001E-02
1106.054, 1.9526999E-02
1106.537, 0.1466370
1107.019, 0.3708000
1107.501, 0.6209720
1107.983, 0.7180820
1108.465, 0.6186750
1108.947, 0.5451280
1109.429, 0.5800090
1109.911, 0.5515480
1110.394, 0.3471910
1110.876, 0.1524930
1111.358, 0.1058850
1111.840, 0.1269610
1112.322, 7.6922998E-02
1112.804, 5.0648000E-02
1113.286, 0.1465030
1113.768, 0.2689700
1114.250, 0.2605970
1114.733, 3.7670001E-02
1115.215, 0.2219160
1115.697, 0.5167690
1116.179, 0.7420770
1116.661, 0.7372130
1117.143, 0.5415570
1117.625, 0.4497870
1118.107, 0.5281330
1118.589, 0.5479890
1119.072, 0.4438250
1119.554, 0.4170110
1120.036, 0.5803180
1120.518, 0.7637020
1121.000, 0.8379060
1121.482, 0.8085560
1121.964, 0.6753580
1122.446, 0.4039120
1122.929, 0.2301900
1123.411, 0.1444440
1123.893, 0.2139590
1124.375, 0.5235210
1124.857, 0.7695120
1125.339, 0.7384300
1125.821, 0.5699880
1126.303, 0.4856190
1126.786, 0.4880100
1127.268, 0.6963390
1127.750, 1.169373
1128.232, 1.237976
1128.714, 0.7451520
1129.196, 0.4086300
1129.678, 0.5813450
1130.160, 0.8813740
1130.642, 0.8749050
1131.125, 0.6436610
1131.607, 0.4385150
1132.089, 0.2654460
1132.571, 0.2609410
1133.053, 0.4270130
1133.535, 0.5621830
1134.017, 0.6047210
1134.499, 0.5599630
1134.981, 0.4144860
1135.464, 0.2785190
1135.946, 0.4036710
1136.428, 0.6965290
1136.910, 0.8351140
1137.392, 0.8231390
1137.874, 0.7131120
1138.356, 0.5252530
1138.838, 0.4043430
1139.321, 0.4423260
1139.803, 0.5211980
1140.285, 0.5121000
1140.767, 0.4834820
1141.249, 0.5973700
1141.731, 0.7752340
1142.213, 0.8499950
1142.695, 0.8185730
1143.177, 0.7256200
1143.660, 0.5957490
1144.142, 0.4768750
1144.624, 0.3699380
1145.106, 0.3673630
1145.588, 0.6870690
1146.070, 1.068817
1146.552, 1.174683
1147.034, 1.094707
1147.516, 1.004471
1147.999, 0.9447480
1148.481, 0.9008480
1148.963, 0.8705220
1149.445, 0.8308680
1149.927, 0.7052460
1150.409, 0.6353870
1150.891, 0.8020320
1151.373, 1.016350
1151.856, 1.073940
1152.338, 1.001854
1152.820, 0.9017110
1153.302, 0.8018340
1153.784, 0.7695350
1154.266, 0.9058380
1154.748, 1.001255
1155.230, 0.9749720
1155.713, 0.9002610
1156.195, 0.8123860
1156.677, 0.7101170
1157.159, 0.5412330
1157.641, 0.3357090
1158.123, 0.3067510
1158.605, 0.6310620
1159.087, 0.7948720
1159.569, 0.5845340
1160.052, 0.4633900
1160.534, 0.6644100
1161.016, 0.8637960
1161.498, 0.8031200
1161.980, 0.6035840
1162.462, 0.4885600
1162.944, 0.4565090
1163.426, 0.4412610
1163.908, 0.4266700
1164.391, 0.4991680
1164.873, 0.7149280
1165.355, 0.8898580
1165.837, 0.9477120
1166.319, 0.8893850
1166.801, 0.6841850
1167.283, 0.3966980
1167.765, 0.2906880
1168.247, 0.3692820
1168.730, 0.5819440
1169.212, 0.9335860
1169.694, 1.112923
1170.176, 1.032066
1170.658, 0.8802950
1171.140, 0.7832530
1171.622, 0.7026940
1172.104, 0.5526810
1172.587, 0.4056210
1173.069, 0.5216870
1173.551, 0.4614640
1174.033, 0.4717860
1174.515, 0.6267740
1174.997, 0.5587880
1175.479, 0.7665210
1175.961, 0.9378550
1176.443, 0.7709390
1176.926, 0.5404970
1177.408, 0.5880130
1177.890, 0.7896310
1178.372, 1.068539
1178.854, 1.315277
1179.336, 1.310467
1179.818, 1.064972
1180.300, 0.5579070
1180.782, 0.9602850
1181.265, 1.184132
1181.747, 1.239773
1182.229, 0.6200450
1182.711, 0.8716050
1183.193, 0.7739220
1183.675, 0.6621020
1184.157, 1.036354
1184.639, 0.5146260
1185.122, 0.8811680
1185.604, 0.8936420
1186.086, 1.067978
1186.568, 0.8908540
1187.050, 0.8222770
1187.532, 1.105240
1188.014, 1.193565
1188.496, 0.9760250
1188.979, 1.160656
1189.461, 0.6271970
1189.943, 0.7269330
1190.425, 1.099724
1190.907, 0.9022060
1191.389, 1.095791
1191.871, 1.141052
1192.353, 0.5083920
1192.835, 1.051495
1193.318, 1.085979
1193.800, 0.6049730
1194.282, 1.119373
1194.764, 0.7099460
1195.246, 0.6252820
1195.728, 0.7888570
1196.210, 0.6943050
1196.692, 1.002113
1197.174, 0.9180600
1197.657, 0.7987170
1198.139, 0.8317990
1198.621, 0.7410320
1199.103, 0.6286090
1199.585, 0.6732560
1200.067, 0.7008090
1200.549, 0.7069550
1201.031, 0.6893770
1201.514, 0.6310230
1201.996, 0.5454560
1202.478, 0.4718630
1202.960, 0.4196930
1203.442, 0.3678860
1203.924, 0.2865870
1204.406, 0.2551420
1204.888, 0.4043540
1205.370, 0.5531010
1205.853, 0.5378190
1206.335, 0.4435650
1206.817, 0.3763120
1207.299, 0.3281480
1207.781, 0.2329480
1208.263, 7.3109001E-02
1208.745, 4.0855002E-02
1209.227, 0.1274600
1209.709, 9.7401001E-02
1210.192, 0.2039340
1210.674, 0.4636190
1211.156, 0.4764710
1211.638, 0.4151730
1212.120, 0.4514350
1212.602, 0.5585750
1213.084, 0.6286430
1213.566, 0.6476750
1214.049, 0.7027740
1214.531, 0.8357890
1215.013, 0.8058550
1215.495, 0.5148090
1215.977, 0.3412280
1216.459, 0.5141450
1216.941, 0.7419700
1217.423, 0.6475140
1217.906, 0.3587230
1218.388, 0.2740100
1218.870, 0.3567280
1219.352, 0.4599080
1219.834, 0.5528410
1220.316, 0.5039480
1220.798, 0.3118740
1221.280, 0.1619950
1221.762, 0.1552850
1222.245, 0.2399710
1222.727, 0.4504170
1223.209, 0.6484340
1223.691, 0.6441610
1224.173, 0.5550380
1224.655, 0.5073970
1225.137, 0.5101050
1225.619, 0.5788150
1226.101, 0.6905980
1226.584, 0.7199060
1227.066, 0.6008760
1227.548, 0.4787370
1228.030, 0.4056050
1228.512, 0.3400500
1228.994, 0.2547760
1229.476, 0.1801030
1229.958, 0.1612320
1230.441, 0.1583100
1230.923, 7.7395998E-02
1231.405, 7.6118000E-02
1231.887, 0.1026040
1232.369, 2.4886999E-02
1232.851, 0.2167780
1233.333, 0.5249480
1233.815, 0.6893620
1234.297, 0.6116940
1234.780, 0.4564970
1235.262, 0.3364750
1235.744, 0.2301900
1236.226, 6.3460998E-02
1236.708, 0.1017340
1237.190, 0.1014370
1237.672, 0.5445820
1238.154, 0.5922890
1238.636, 0.2798420
1239.119, 0.1178780
1239.601, 0.2364920
1240.083, 0.3628880
1240.565, 0.3204990
1241.047, 0.2514760
1241.529, 0.3215640
1242.011, 0.4011570
1242.493, 0.3047980
1242.975, 0.1888120
1243.458, 0.2947310
1243.940, 0.5238420
1244.422, 0.6297650
1244.904, 0.5785870
1245.386, 0.5197110
1245.868, 0.5261040
1246.350, 0.4633600
1246.832, 0.1982310
1247.315, 5.7999999E-04
1247.797, 1.4996000E-02
1248.279, 1.9909000E-02
1248.761, 1.7090000E-02
1249.243, 5.9199999E-03
1249.725, 5.3196002E-02
1250.207, 0.1495250
1250.689, 0.1161990
1251.172, 6.8718001E-02
1251.654, 0.1347500
1252.136, 5.7358000E-02
1252.618, 3.3229999E-03
1253.100, 2.3170000E-02
1253.582, 8.7740002E-03
1254.064, 0.1163290
1254.546, 0.2713240
1255.028, 0.3612790
1255.510, 0.3898540
1255.993, 0.3194540
1256.475, 0.2166560
1256.957, 0.2272680
1257.439, 0.3100740
1257.921, 0.3199540
1258.403, 0.2462960
1258.885, 0.1902810
1259.367, 0.1459770
1259.850, 0.1818890
1260.332, 0.4390410
1260.814, 0.6170430
1261.296, 0.5643540
1261.778, 0.4591710
1262.260, 0.4531140
1262.742, 0.5040820
1263.224, 0.5479470
1263.707, 0.5794910
1264.189, 0.5752910
1264.671, 0.5179940
1265.153, 0.4808920
1265.635, 0.4697270
1266.117, 0.4139480
1266.599, 0.3169100
1267.081, 0.3052100
1267.563, 0.4747120
1268.046, 0.6008910
1268.528, 0.6086350
1269.010, 0.4999050
1269.492, 0.2989200
1269.974, 6.4144000E-02
1270.456, 1.9580999E-02
1270.938, 0.1162300
1271.420, 0.1704030
1271.902, 0.1709630
1272.385, 0.2863500
1272.867, 0.5780640
1273.349, 0.7996520
1273.831, 0.7897220
1274.313, 0.6990240
1274.795, 0.5208240
1275.277, 0.3807910
1275.759, 0.4243620
1276.242, 0.5053790
1276.724, 0.4174960
1277.206, 0.2071000
1277.688, 8.9317001E-02
1278.170, 0.1064380
1278.652, 8.8200003E-02
1279.134, 2.3189999E-02
1279.616, 5.3679999E-02
1280.099, 0.4152950
1280.581, 0.5709950
1281.063, 0.3118400
1281.545, 7.6332003E-02
1282.027, 0.1562390
1282.509, 0.4235570
1282.991, 0.3243640
1283.473, 6.2256001E-02
1283.955, 0.0000000E+00