9.0492E+01	0.0000E+00
9.0974E+01	4.5249E+00
9.1456E+01	8.2987E+00
9.1939E+01	4.6721E+00
9.2421E+01	1.4285E+00
9.2903E+01	5.1440E-01
9.3385E+01	6.8271E+00
9.3867E+01	1.3908E+01
9.4349E+01	1.3014E+01
9.4831E+01	7.7097E+00
9.5313E+01	4.4425E+00
9.5795E+01	1.0504E+01
9.6278E+01	2.4962E+01
9.6760E+01	3.5325E+01
9.7242E+01	4.0246E+01
9.7724E+01	4.3466E+01
9.8206E+01	4.6653E+01
9.8688E+01	4.6151E+01
9.9170E+01	4.6269E+01
9.9652E+01	5.5468E+01
1.0013E+02	7.3989E+01
1.0062E+02	8.7196E+01
1.0110E+02	9.1405E+01
1.0158E+02	8.8838E+01
1.0206E+02	9.0357E+01
1.0255E+02	9.7803E+01
1.0303E+02	1.0829E+02
1.0351E+02	1.1662E+02
1.0399E+02	1.3555E+02
1.0447E+02	1.6294E+02
1.0496E+02	1.9381E+02
1.0544E+02	2.3362E+02
1.0592E+02	2.6525E+02
1.0640E+02	2.8098E+02
1.0688E+02	2.8042E+02
1.0737E+02	2.6876E+02
1.0785E+02	2.4287E+02
1.0833E+02	2.1731E+02
1.0881E+02	1.9596E+02
1.0929E+02	1.7984E+02
1.0978E+02	1.6623E+02
1.1026E+02	1.5771E+02
1.1074E+02	1.5216E+02
1.1122E+02	1.4281E+02
1.1171E+02	1.2558E+02
1.1219E+02	1.0730E+02
1.1267E+02	9.1028E+01
1.1315E+02	8.0181E+01
1.1363E+02	6.7988E+01
1.1412E+02	5.1335E+01
1.1460E+02	3.1307E+01
1.1508E+02	1.5615E+01
1.1556E+02	1.1631E+01
1.1604E+02	1.0040E+01
1.1653E+02	3.6218E+00
1.1701E+02	1.6057E+01
1.1749E+02	3.5062E+01
1.1797E+02	4.7020E+01
1.1846E+02	5.1534E+01
1.1894E+02	5.6578E+01
1.1942E+02	7.0554E+01
1.1990E+02	8.6004E+01
1.2038E+02	9.3388E+01
1.2087E+02	8.6805E+01
1.2135E+02	7.1966E+01
1.2183E+02	5.4446E+01
1.2231E+02	3.5743E+01
1.2279E+02	7.8782E+00
1.2328E+02	2.7378E+01
1.2376E+02	7.5360E+01
1.2424E+02	1.4796E+02
1.2472E+02	2.5084E+02
1.2520E+02	3.8274E+02
1.2569E+02	5.3969E+02
1.2617E+02	7.2100E+02
1.2665E+02	9.2983E+02
1.2713E+02	1.1698E+03
1.2762E+02	1.4404E+03
1.2810E+02	1.7394E+03
1.2858E+02	2.0631E+03
1.2906E+02	2.4140E+03
1.2954E+02	2.7970E+03
1.3003E+02	3.2121E+03
1.3051E+02	3.6615E+03
1.3099E+02	4.1521E+03
1.3147E+02	4.6794E+03
1.3195E+02	5.2658E+03
1.3244E+02	5.9134E+03
1.3292E+02	6.6277E+03
1.3340E+02	7.4424E+03
1.3388E+02	8.3594E+03
1.3436E+02	9.3785E+03
1.3485E+02	1.0563E+04
1.3533E+02	1.1915E+04
1.3581E+02	1.3433E+04
1.3629E+02	1.5096E+04
1.3678E+02	1.6908E+04
1.3726E+02	1.8884E+04
1.3774E+02	2.1069E+04
1.3822E+02	2.3422E+04
1.3870E+02	2.5878E+04
1.3919E+02	2.8485E+04
1.3967E+02	3.1123E+04
1.4015E+02	3.3709E+04
1.4063E+02	3.6267E+04
1.4111E+02	3.8611E+04
1.4160E+02	4.0752E+04
1.4208E+02	4.2787E+04
1.4256E+02	4.4124E+04
1.4304E+02	4.4743E+04
1.4353E+02	4.4684E+04
1.4401E+02	4.3973E+04
1.4449E+02	4.2444E+04
1.4497E+02	4.0543E+04
1.4545E+02	3.8451E+04
1.4594E+02	3.5982E+04
1.4642E+02	3.3639E+04
1.4690E+02	3.1362E+04
1.4738E+02	2.9198E+04
1.4786E+02	2.7248E+04
1.4835E+02	2.5569E+04
1.4883E+02	2.4074E+04
1.4931E+02	2.2703E+04
1.4979E+02	2.1492E+04
1.5027E+02	2.0367E+04
1.5076E+02	1.9357E+04
1.5124E+02	1.8455E+04
1.5172E+02	1.7595E+04
1.5220E+02	1.6785E+04
1.5269E+02	1.6019E+04
1.5317E+02	1.5285E+04
1.5365E+02	1.4600E+04
1.5413E+02	1.3935E+04
1.5461E+02	1.3281E+04
1.5510E+02	1.2638E+04
1.5558E+02	1.2029E+04
1.5606E+02	1.1458E+04
1.5654E+02	1.0920E+04
1.5702E+02	1.0415E+04
1.5751E+02	9.9364E+03
1.5799E+02	9.4965E+03
1.5847E+02	9.1014E+03
1.5895E+02	8.7529E+03
1.5943E+02	8.4340E+03
1.5992E+02	8.1404E+03
1.6040E+02	7.8742E+03
1.6088E+02	7.6380E+03
1.6136E+02	7.4451E+03
1.6185E+02	7.2720E+03
1.6233E+02	7.1063E+03
1.6281E+02	6.9464E+03
1.6329E+02	6.8055E+03
1.6377E+02	6.7007E+03
1.6426E+02	6.6102E+03
1.6474E+02	6.4670E+03
1.6522E+02	6.2988E+03
1.6570E+02	6.1359E+03
1.6618E+02	5.9865E+03
1.6667E+02	5.8517E+03
1.6715E+02	5.7271E+03
1.6763E+02	5.6154E+03
1.6811E+02	5.5107E+03
1.6860E+02	5.4025E+03
1.6908E+02	5.2786E+03
1.6956E+02	5.1519E+03
1.7004E+02	5.0345E+03
1.7052E+02	4.9308E+03
1.7101E+02	4.8295E+03
1.7149E+02	4.7224E+03
1.7197E+02	4.6098E+03
1.7245E+02	4.4953E+03
1.7293E+02	4.3723E+03
1.7342E+02	4.2505E+03
1.7390E+02	4.1415E+03
1.7438E+02	4.0488E+03
1.7486E+02	3.9657E+03
1.7534E+02	3.8851E+03
1.7583E+02	3.8076E+03
1.7631E+02	3.7354E+03
1.7679E+02	3.6705E+03
1.7727E+02	3.6112E+03
1.7776E+02	3.5564E+03
1.7824E+02	3.5070E+03
1.7872E+02	3.4619E+03
1.7920E+02	3.4203E+03
1.7968E+02	3.3820E+03
1.8017E+02	3.3442E+03
1.8065E+02	3.3037E+03
1.8113E+02	3.2611E+03
1.8161E+02	3.2197E+03
1.8209E+02	3.1806E+03
1.8258E+02	3.1433E+03
1.8306E+02	3.1029E+03
1.8354E+02	3.0601E+03
1.8402E+02	3.0233E+03
1.8450E+02	3.0043E+03
1.8499E+02	2.9989E+03
1.8547E+02	2.9921E+03
1.8595E+02	2.9782E+03
1.8643E+02	2.9604E+03
1.8692E+02	2.9459E+03
1.8740E+02	2.9345E+03
1.8788E+02	2.9273E+03
1.8836E+02	2.9245E+03
1.8884E+02	2.9264E+03
1.8933E+02	2.9357E+03
1.8981E+02	2.9520E+03
1.9029E+02	2.9762E+03
1.9077E+02	3.0096E+03
1.9125E+02	3.0519E+03
1.9174E+02	3.1090E+03
1.9222E+02	3.1932E+03
1.9270E+02	3.3037E+03
1.9318E+02	3.4177E+03
1.9367E+02	3.5227E+03
1.9415E+02	3.6237E+03
1.9463E+02	3.7550E+03
1.9511E+02	3.9280E+03
1.9559E+02	4.0917E+03
1.9608E+02	4.1949E+03
1.9656E+02	4.2397E+03
1.9704E+02	4.1970E+03
1.9752E+02	4.0338E+03
1.9800E+02	3.7584E+03
1.9849E+02	3.4707E+03
1.9897E+02	3.1609E+03
1.9945E+02	2.8619E+03
1.9993E+02	2.6284E+03
2.0041E+02	2.4627E+03
2.0090E+02	2.3303E+03
2.0138E+02	2.2201E+03
2.0186E+02	2.1326E+03
2.0234E+02	2.0570E+03
2.0283E+02	1.9944E+03
2.0331E+02	1.9418E+03
2.0379E+02	1.8942E+03
2.0427E+02	1.8503E+03
2.0475E+02	1.8150E+03
2.0524E+02	1.7933E+03
2.0572E+02	1.7876E+03
2.0620E+02	1.7742E+03
2.0668E+02	1.7496E+03
2.0716E+02	1.7209E+03
2.0765E+02	1.7024E+03
2.0813E+02	1.6970E+03
2.0861E+02	1.6925E+03
2.0909E+02	1.6832E+03
2.0958E+02	1.6683E+03
2.1006E+02	1.6547E+03
2.1054E+02	1.6427E+03
2.1102E+02	1.6306E+03
2.1150E+02	1.6157E+03
2.1199E+02	1.5972E+03
2.1247E+02	1.5822E+03
2.1295E+02	1.5738E+03
2.1343E+02	1.5730E+03
2.1391E+02	1.5700E+03
2.1440E+02	1.5651E+03
2.1488E+02	1.5594E+03
2.1536E+02	1.5532E+03
2.1584E+02	1.5447E+03
2.1632E+02	1.5363E+03
2.1681E+02	1.5307E+03
2.1729E+02	1.5301E+03
2.1777E+02	1.5268E+03
2.1825E+02	1.5210E+03
2.1874E+02	1.5114E+03
2.1922E+02	1.4950E+03
2.1970E+02	1.4678E+03
2.2018E+02	1.4432E+03
2.2066E+02	1.4287E+03
2.2115E+02	1.4301E+03
2.2163E+02	1.4234E+03
2.2211E+02	1.4075E+03
2.2259E+02	1.3845E+03
2.2307E+02	1.3588E+03
2.2356E+02	1.3272E+03
2.2404E+02	1.2986E+03
2.2452E+02	1.2792E+03
2.2500E+02	1.2764E+03
2.2548E+02	1.2626E+03
2.2597E+02	1.2328E+03
2.2645E+02	1.1935E+03
2.2693E+02	1.1619E+03
2.2741E+02	1.1424E+03
2.2790E+02	1.1237E+03
2.2838E+02	1.0998E+03
2.2886E+02	1.0662E+03
2.2934E+02	1.0391E+03
2.2982E+02	1.0218E+03
2.3031E+02	1.0102E+03
2.3079E+02	9.9280E+02
2.3127E+02	9.6656E+02
2.3175E+02	9.3887E+02
2.3223E+02	9.1308E+02
2.3272E+02	8.9012E+02
2.3320E+02	8.6674E+02
2.3368E+02	8.4322E+02
2.3416E+02	8.1920E+02
2.3465E+02	7.9313E+02
2.3513E+02	7.6213E+02
2.3561E+02	7.3352E+02
2.3609E+02	7.1142E+02
2.3657E+02	7.0101E+02
2.3706E+02	6.8519E+02
2.3754E+02	6.6123E+02
2.3802E+02	6.3278E+02
2.3850E+02	6.0948E+02
2.3898E+02	5.9541E+02
2.3947E+02	5.8057E+02
2.3995E+02	5.6021E+02
2.4043E+02	5.3058E+02
2.4091E+02	5.0391E+02
2.4139E+02	4.7991E+02
2.4188E+02	4.5888E+02
2.4236E+02	4.4239E+02
2.4284E+02	4.3453E+02
2.4332E+02	4.2480E+02
2.4381E+02	4.0806E+02
2.4429E+02	3.8048E+02
2.4477E+02	3.5514E+02
2.4525E+02	3.3264E+02
2.4573E+02	3.1213E+02
2.4622E+02	2.9156E+02
2.4670E+02	2.6996E+02
2.4718E+02	2.4990E+02
2.4766E+02	2.3303E+02
2.4814E+02	2.2162E+02
2.4863E+02	2.0673E+02
2.4911E+02	1.8534E+02
2.4959E+02	1.6206E+02
2.5007E+02	1.4723E+02
2.5055E+02	1.4636E+02
2.5104E+02	1.4457E+02
2.5152E+02	1.3500E+02
2.5200E+02	1.1287E+02
2.5248E+02	9.8974E+01
2.5297E+02	9.7836E+01
2.5345E+02	1.0196E+02
2.5393E+02	9.7070E+01
2.5441E+02	7.9257E+01
2.5489E+02	5.8991E+01
2.5538E+02	3.9036E+01
2.5586E+02	1.8473E+01
2.5634E+02	2.6045E+00
2.5682E+02	6.4470E+00
2.5730E+02	1.2405E+01
2.5779E+02	2.2383E+01
2.5827E+02	3.8447E+01
2.5875E+02	5.3606E+01
2.5923E+02	6.5435E+01
2.5972E+02	7.3064E+01
2.6020E+02	8.1342E+01
2.6068E+02	9.1049E+01
2.6116E+02	1.0110E+02
2.6164E+02	1.1066E+02
2.6213E+02	1.1937E+02
2.6261E+02	1.2794E+02
2.6309E+02	1.3721E+02
2.6357E+02	1.4725E+02
2.6405E+02	1.5518E+02
2.6454E+02	1.5988E+02
2.6502E+02	1.6360E+02
2.6550E+02	1.6798E+02
2.6598E+02	1.7341E+02
2.6646E+02	1.7951E+02
2.6695E+02	1.8748E+02
2.6743E+02	1.9766E+02
2.6791E+02	2.0160E+02
2.6839E+02	1.9587E+02
2.6888E+02	1.8972E+02
2.6936E+02	1.9602E+02
2.6984E+02	2.1934E+02
2.7032E+02	2.3664E+02
2.7080E+02	2.4031E+02
2.7129E+02	2.3093E+02
2.7177E+02	2.2876E+02
2.7225E+02	2.3755E+02
2.7273E+02	2.4571E+02
2.7321E+02	2.4057E+02
2.7370E+02	2.1894E+02
2.7418E+02	2.0050E+02
2.7466E+02	1.9042E+02
2.7514E+02	1.8716E+02
2.7563E+02	1.7746E+02
2.7611E+02	1.6012E+02
2.7659E+02	1.3993E+02
2.7707E+02	1.2405E+02
2.7755E+02	1.1325E+02
2.7804E+02	9.6494E+01
2.7852E+02	7.0441E+01
2.7900E+02	3.7128E+01
2.7948E+02	5.7393E+00
2.7996E+02	2.3701E+01
2.8045E+02	5.4770E+01
2.8093E+02	9.2151E+01
2.8141E+02	1.3544E+02
2.8189E+02	1.7642E+02
2.8237E+02	2.1233E+02
2.8286E+02	2.4630E+02
2.8334E+02	2.8653E+02
2.8382E+02	3.3298E+02
2.8430E+02	3.8575E+02
2.8479E+02	4.4827E+02
2.8527E+02	5.1883E+02
2.8575E+02	5.8479E+02
2.8623E+02	6.4295E+02
2.8671E+02	6.9766E+02
2.8720E+02	7.5785E+02
2.8768E+02	8.2355E+02
2.8816E+02	8.9210E+02
2.8864E+02	9.6331E+02
2.8912E+02	1.0374E+03
2.8961E+02	1.1081E+03
2.9009E+02	1.1760E+03
2.9057E+02	1.2410E+03
2.9105E+02	1.3013E+03
2.9153E+02	1.3572E+03
2.9202E+02	1.4154E+03
2.9250E+02	1.4808E+03
2.9298E+02	1.5516E+03
2.9346E+02	1.6183E+03
2.9395E+02	1.6816E+03
2.9443E+02	1.7397E+03
2.9491E+02	1.7856E+03
2.9539E+02	1.8216E+03
2.9587E+02	1.8591E+03
2.9636E+02	1.9040E+03
2.9684E+02	1.9542E+03
2.9732E+02	2.0035E+03
2.9780E+02	2.0515E+03
2.9828E+02	2.0956E+03
2.9877E+02	2.1321E+03
2.9925E+02	2.1615E+03
2.9973E+02	2.1891E+03
3.0021E+02	2.2176E+03
3.0070E+02	2.2454E+03
3.0118E+02	2.2703E+03
3.0166E+02	2.2921E+03
3.0214E+02	2.3100E+03
3.0262E+02	2.3179E+03
3.0311E+02	2.3215E+03
3.0359E+02	2.3309E+03
3.0407E+02	2.3542E+03
3.0455E+02	2.3820E+03
3.0503E+02	2.4062E+03
3.0552E+02	2.4263E+03
3.0600E+02	2.4420E+03
3.0648E+02	2.4487E+03
3.0696E+02	2.4509E+03
3.0744E+02	2.4537E+03
3.0793E+02	2.4593E+03
3.0841E+02	2.4671E+03
3.0889E+02	2.4799E+03
3.0937E+02	2.4951E+03
3.0986E+02	2.5020E+03
3.1034E+02	2.4889E+03
3.1082E+02	2.4682E+03
3.1130E+02	2.4520E+03
3.1178E+02	2.4450E+03
3.1227E+02	2.4363E+03
3.1275E+02	2.4202E+03
3.1323E+02	2.3968E+03
3.1371E+02	2.3674E+03
3.1419E+02	2.3279E+03
3.1468E+02	2.2868E+03
3.1516E+02	2.2518E+03
3.1564E+02	2.2267E+03
3.1612E+02	2.1966E+03
3.1660E+02	2.1534E+03
3.1709E+02	2.1011E+03
3.1757E+02	2.0458E+03
3.1805E+02	1.9867E+03
3.1853E+02	1.9273E+03
3.1902E+02	1.8711E+03
3.1950E+02	1.8195E+03
3.1998E+02	1.7612E+03
3.2046E+02	1.6846E+03
3.2094E+02	1.6017E+03
3.2143E+02	1.5262E+03
3.2191E+02	1.4720E+03
3.2239E+02	1.4155E+03
3.2287E+02	1.3478E+03
3.2335E+02	1.2683E+03
3.2384E+02	1.1911E+03
3.2432E+02	1.1208E+03
3.2480E+02	1.0529E+03
3.2528E+02	9.8435E+02
3.2577E+02	9.1200E+02
3.2625E+02	8.4396E+02
3.2673E+02	7.8406E+02
3.2721E+02	7.3042E+02
3.2769E+02	6.7211E+02
3.2818E+02	6.0078E+02
3.2866E+02	5.3214E+02
3.2914E+02	4.7445E+02
3.2962E+02	4.3630E+02
3.3010E+02	3.9563E+02
3.3059E+02	3.5134E+02
3.3107E+02	3.0520E+02
3.3155E+02	2.6053E+02
3.3203E+02	2.1128E+02
3.3251E+02	1.6937E+02
3.3300E+02	1.4071E+02
3.3348E+02	1.3120E+02
3.3396E+02	1.1747E+02
3.3444E+02	9.2293E+01
3.3493E+02	6.6563E+01
3.3541E+02	6.0572E+01
3.3589E+02	8.4855E+01
3.3637E+02	1.0917E+02
3.3685E+02	1.2250E+02
3.3734E+02	1.2351E+02
3.3782E+02	1.2937E+02
3.3830E+02	1.3835E+02
3.3878E+02	1.5394E+02
3.3926E+02	1.8030E+02
3.3975E+02	2.1968E+02
3.4023E+02	2.6196E+02
3.4071E+02	3.0416E+02
3.4119E+02	3.4754E+02
3.4168E+02	3.9218E+02
3.4216E+02	4.3845E+02
3.4264E+02	4.8816E+02
3.4312E+02	5.4477E+02
3.4360E+02	6.0746E+02
3.4409E+02	6.7240E+02
3.4457E+02	7.3799E+02
3.4505E+02	8.0514E+02
3.4553E+02	8.7172E+02
3.4601E+02	9.3744E+02
3.4650E+02	1.0101E+03
3.4698E+02	1.0964E+03
3.4746E+02	1.1953E+03
3.4794E+02	1.2952E+03
3.4842E+02	1.3958E+03
3.4891E+02	1.4999E+03
3.4939E+02	1.6120E+03
3.4987E+02	1.7320E+03
3.5035E+02	1.8586E+03
3.5084E+02	1.9922E+03
3.5132E+02	2.1310E+03
3.5180E+02	2.2722E+03
3.5228E+02	2.4143E+03
3.5276E+02	2.5661E+03
3.5325E+02	2.7382E+03
3.5373E+02	2.9261E+03
3.5421E+02	3.1200E+03
3.5469E+02	3.3133E+03
3.5517E+02	3.5112E+03
3.5566E+02	3.7217E+03
3.5614E+02	3.9434E+03
3.5662E+02	4.1741E+03
3.5710E+02	4.4049E+03
3.5758E+02	4.6457E+03
3.5807E+02	4.9124E+03
3.5855E+02	5.2153E+03
3.5903E+02	5.5335E+03
3.5951E+02	5.8520E+03
3.6000E+02	6.1759E+03
3.6048E+02	6.5246E+03
3.6096E+02	6.9147E+03
3.6144E+02	7.3277E+03
3.6192E+02	7.7519E+03
3.6241E+02	8.1783E+03
3.6289E+02	8.6367E+03
3.6337E+02	9.1430E+03
3.6385E+02	9.6874E+03
3.6433E+02	1.0255E+04
3.6482E+02	1.0828E+04
3.6530E+02	1.1441E+04
3.6578E+02	1.2093E+04
3.6626E+02	1.2789E+04
3.6675E+02	1.3526E+04
3.6723E+02	1.4300E+04
3.6771E+02	1.5116E+04
3.6819E+02	1.5978E+04
3.6867E+02	1.6887E+04
3.6916E+02	1.7847E+04
3.6964E+02	1.8833E+04
3.7012E+02	1.9856E+04
3.7060E+02	2.0958E+04
3.7108E+02	2.2146E+04
3.7157E+02	2.3411E+04
3.7205E+02	2.4733E+04
3.7253E+02	2.6117E+04
3.7301E+02	2.7572E+04
3.7349E+02	2.9086E+04
3.7398E+02	3.0661E+04
3.7446E+02	3.2322E+04
3.7494E+02	3.4071E+04
3.7542E+02	3.5908E+04
3.7591E+02	3.7846E+04
3.7639E+02	3.9892E+04
3.7687E+02	4.2031E+04
3.7735E+02	4.4292E+04
3.7783E+02	4.6634E+04
3.7832E+02	4.9071E+04
3.7880E+02	5.1614E+04
3.7928E+02	5.4246E+04
3.7976E+02	5.6996E+04
3.8024E+02	5.9835E+04
3.8073E+02	6.2758E+04
3.8121E+02	6.5748E+04
3.8169E+02	6.8832E+04
3.8217E+02	7.2032E+04
3.8265E+02	7.5364E+04
3.8314E+02	7.8733E+04
3.8362E+02	8.2159E+04
3.8410E+02	8.5614E+04
3.8458E+02	8.9114E+04
3.8507E+02	9.2667E+04
3.8555E+02	9.6259E+04
3.8603E+02	1.0000E+05
3.8651E+02	1.0380E+05
3.8699E+02	1.0758E+05
3.8748E+02	1.1130E+05
3.8796E+02	1.1498E+05
3.8844E+02	1.1866E+05
3.8892E+02	1.2233E+05
3.8940E+02	1.2591E+05
3.8989E+02	1.2945E+05
3.9037E+02	1.3288E+05
3.9085E+02	1.3612E+05
3.9133E+02	1.3915E+05
3.9182E+02	1.4201E+05
3.9230E+02	1.4479E+05
3.9278E+02	1.4734E+05
3.9326E+02	1.4949E+05
3.9374E+02	1.5114E+05
3.9423E+02	1.5242E+05
3.9471E+02	1.5341E+05
3.9519E+02	1.5406E+05
3.9567E+02	1.5421E+05
3.9615E+02	1.5385E+05
3.9664E+02	1.5293E+05
3.9712E+02	1.5143E+05
3.9760E+02	1.4929E+05
3.9808E+02	1.4668E+05
3.9856E+02	1.4357E+05
3.9905E+02	1.4003E+05
3.9953E+02	1.3610E+05
4.0001E+02	1.3167E+05
4.0049E+02	1.2699E+05
4.0098E+02	1.2204E+05
4.0146E+02	1.1680E+05
4.0194E+02	1.1158E+05
4.0242E+02	1.0631E+05
4.0290E+02	1.0107E+05
4.0339E+02	9.5926E+04
4.0387E+02	9.0832E+04
4.0435E+02	8.5868E+04
4.0483E+02	8.1060E+04
4.0531E+02	7.6392E+04
4.0580E+02	7.1968E+04
4.0628E+02	6.7771E+04
4.0676E+02	6.3787E+04
4.0724E+02	6.0010E+04
4.0772E+02	5.6425E+04
4.0821E+02	5.3067E+04
4.0869E+02	4.9928E+04
4.0917E+02	4.6983E+04
4.0965E+02	4.4194E+04
4.1014E+02	4.1575E+04
4.1062E+02	3.9135E+04
4.1110E+02	3.6873E+04
4.1158E+02	3.4773E+04
4.1206E+02	3.2803E+04
4.1255E+02	3.0978E+04
4.1303E+02	2.9259E+04
4.1351E+02	2.7651E+04
4.1399E+02	2.6148E+04
4.1447E+02	2.4724E+04
4.1496E+02	2.3370E+04
4.1544E+02	2.2099E+04
4.1592E+02	2.0915E+04
4.1640E+02	1.9819E+04
4.1689E+02	1.8781E+04
4.1737E+02	1.7804E+04
4.1785E+02	1.6883E+04
4.1833E+02	1.6009E+04
4.1881E+02	1.5189E+04
4.1930E+02	1.4409E+04
4.1978E+02	1.3675E+04
4.2026E+02	1.2980E+04
4.2074E+02	1.2330E+04
4.2122E+02	1.1729E+04
4.2171E+02	1.1160E+04
4.2219E+02	1.0608E+04
4.2267E+02	1.0078E+04
4.2315E+02	9.5694E+03
4.2363E+02	9.0878E+03
4.2412E+02	8.6300E+03
4.2460E+02	8.1914E+03
4.2508E+02	7.7801E+03
4.2556E+02	7.3768E+03
4.2605E+02	6.9723E+03
4.2653E+02	6.5800E+03
4.2701E+02	6.2122E+03
4.2749E+02	5.8794E+03
4.2797E+02	5.5589E+03
4.2846E+02	5.2481E+03
4.2894E+02	4.9442E+03
4.2942E+02	4.6488E+03
4.2990E+02	4.3669E+03
4.3038E+02	4.0905E+03
4.3087E+02	3.8148E+03
4.3135E+02	3.5364E+03
4.3183E+02	3.2780E+03
4.3231E+02	3.0429E+03
4.3280E+02	2.8265E+03
4.3328E+02	2.6239E+03
4.3376E+02	2.4367E+03
4.3424E+02	2.2645E+03
4.3472E+02	2.1126E+03
4.3521E+02	1.9766E+03
4.3569E+02	1.8373E+03
4.3617E+02	1.6944E+03
4.3665E+02	1.5576E+03
4.3713E+02	1.4409E+03
4.3762E+02	1.3403E+03
4.3810E+02	1.2418E+03
4.3858E+02	1.1390E+03
4.3906E+02	1.0412E+03
4.3954E+02	9.6140E+02
4.4003E+02	8.9652E+02
4.4051E+02	8.3459E+02
4.4099E+02	7.6880E+02
4.4147E+02	7.0310E+02
4.4196E+02	6.4037E+02
4.4244E+02	5.8228E+02
4.4292E+02	5.2422E+02
4.4340E+02	4.6157E+02
4.4388E+02	3.9857E+02
4.4437E+02	3.4038E+02
4.4485E+02	2.9211E+02
4.4533E+02	2.4529E+02
4.4581E+02	1.9528E+02
4.4629E+02	1.4328E+02
4.4678E+02	9.5825E+01
4.4726E+02	5.7732E+01
4.4774E+02	2.1354E+01
4.4822E+02	1.7358E+01
4.4870E+02	5.9217E+01
4.4919E+02	1.0144E+02
4.4967E+02	1.4539E+02
4.5015E+02	1.8888E+02
4.5063E+02	2.2735E+02
4.5112E+02	2.6012E+02
4.5160E+02	2.9044E+02
4.5208E+02	3.1929E+02
4.5256E+02	3.4667E+02
4.5304E+02	3.6762E+02
4.5353E+02	3.7948E+02
4.5401E+02	3.9160E+02
4.5449E+02	4.1325E+02
4.5497E+02	4.4399E+02
4.5545E+02	4.7081E+02
4.5594E+02	4.9265E+02
4.5642E+02	5.0823E+02
4.5690E+02	5.1280E+02
4.5738E+02	5.0749E+02
4.5787E+02	4.9987E+02
4.5835E+02	4.9662E+02
4.5883E+02	4.9258E+02
4.5931E+02	4.7659E+02
4.5979E+02	4.4876E+02
4.6028E+02	4.1796E+02
4.6076E+02	3.9529E+02
4.6124E+02	3.7307E+02
4.6172E+02	3.3990E+02
4.6220E+02	2.8788E+02
4.6269E+02	2.3221E+02
4.6317E+02	1.8613E+02
4.6365E+02	1.4380E+02
4.6413E+02	9.2679E+01
4.6461E+02	2.4584E+01
4.6510E+02	5.1283E+01
4.6558E+02	1.3173E+02
4.6606E+02	2.1778E+02
4.6654E+02	2.9817E+02
4.6703E+02	3.5811E+02
4.6751E+02	4.1745E+02
4.6799E+02	4.9255E+02
4.6847E+02	5.9582E+02
4.6895E+02	7.0186E+02
4.6944E+02	8.0856E+02
4.6992E+02	9.1611E+02
4.7040E+02	1.0253E+03
4.7088E+02	1.1331E+03
4.7136E+02	1.2472E+03
4.7185E+02	1.3723E+03
4.7233E+02	1.5097E+03
4.7281E+02	1.6451E+03
4.7329E+02	1.7740E+03
4.7377E+02	1.9082E+03
4.7426E+02	2.0615E+03
4.7474E+02	2.2339E+03
4.7522E+02	2.4037E+03
4.7570E+02	2.5632E+03
4.7619E+02	2.7211E+03
4.7667E+02	2.8941E+03
4.7715E+02	3.0825E+03
4.7763E+02	3.2810E+03
4.7811E+02	3.4875E+03
4.7860E+02	3.7031E+03
4.7908E+02	3.9304E+03
4.7956E+02	4.1699E+03
4.8004E+02	4.4169E+03
4.8052E+02	4.6649E+03
4.8101E+02	4.9192E+03
4.8149E+02	5.1881E+03
4.8197E+02	5.4818E+03
4.8245E+02	5.7847E+03
4.8294E+02	6.0826E+03
4.8342E+02	6.3820E+03
4.8390E+02	6.7038E+03
4.8438E+02	7.0605E+03
4.8486E+02	7.4379E+03
4.8535E+02	7.8267E+03
4.8583E+02	8.2246E+03
4.8631E+02	8.6477E+03
4.8679E+02	9.1031E+03
4.8727E+02	9.5808E+03
4.8776E+02	1.0076E+04
4.8824E+02	1.0583E+04
4.8872E+02	1.1123E+04
4.8920E+02	1.1692E+04
4.8968E+02	1.2295E+04
4.9017E+02	1.2940E+04
4.9065E+02	1.3619E+04
4.9113E+02	1.4345E+04
4.9161E+02	1.5117E+04
4.9210E+02	1.5938E+04
4.9258E+02	1.6806E+04
4.9306E+02	1.7716E+04
4.9354E+02	1.8680E+04
4.9402E+02	1.9701E+04
4.9451E+02	2.0785E+04
4.9499E+02	2.1954E+04
4.9547E+02	2.3206E+04
4.9595E+02	2.4542E+04
4.9643E+02	2.5942E+04
4.9692E+02	2.7409E+04
4.9740E+02	2.8946E+04
4.9788E+02	3.0563E+04
4.9836E+02	3.2263E+04
4.9885E+02	3.4045E+04
4.9933E+02	3.5924E+04
4.9981E+02	3.7884E+04
5.0029E+02	3.9951E+04
5.0077E+02	4.2090E+04
5.0126E+02	4.4324E+04
5.0174E+02	4.6609E+04
5.0222E+02	4.9013E+04
5.0270E+02	5.1596E+04
5.0318E+02	5.4322E+04
5.0367E+02	5.7106E+04
5.0415E+02	5.9923E+04
5.0463E+02	6.2869E+04
5.0511E+02	6.5957E+04
5.0559E+02	6.9194E+04
5.0608E+02	7.2487E+04
5.0656E+02	7.5821E+04
5.0704E+02	7.9201E+04
5.0752E+02	8.2647E+04
5.0801E+02	8.6158E+04
5.0849E+02	8.9689E+04
5.0897E+02	9.3214E+04
5.0945E+02	9.6683E+04
5.0993E+02	1.0001E+05
5.1042E+02	1.0320E+05
5.1090E+02	1.0612E+05
5.1138E+02	1.0882E+05
5.1186E+02	1.1122E+05
5.1234E+02	1.1321E+05
5.1283E+02	1.1476E+05
5.1331E+02	1.1590E+05
5.1379E+02	1.1657E+05
5.1427E+02	1.1685E+05
5.1475E+02	1.1676E+05
5.1524E+02	1.1634E+05
5.1572E+02	1.1557E+05
5.1620E+02	1.1439E+05
5.1668E+02	1.1289E+05
5.1717E+02	1.1118E+05
5.1765E+02	1.0924E+05
5.1813E+02	1.0716E+05
5.1861E+02	1.0494E+05
5.1909E+02	1.0258E+05
5.1958E+02	1.0009E+05
5.2006E+02	9.7425E+04
5.2054E+02	9.4669E+04
5.2102E+02	9.1881E+04
5.2150E+02	8.9035E+04
5.2199E+02	8.6192E+04
5.2247E+02	8.3332E+04
5.2295E+02	8.0500E+04
5.2343E+02	7.7703E+04
5.2392E+02	7.4941E+04
5.2440E+02	7.2205E+04
5.2488E+02	6.9499E+04
5.2536E+02	6.6851E+04
5.2584E+02	6.4295E+04
5.2633E+02	6.1821E+04
5.2681E+02	5.9449E+04
5.2729E+02	5.7186E+04
5.2777E+02	5.5003E+04
5.2825E+02	5.2851E+04
5.2874E+02	5.0737E+04
5.2922E+02	4.8691E+04
5.2970E+02	4.6777E+04
5.3018E+02	4.4964E+04
5.3066E+02	4.3222E+04
5.3115E+02	4.1558E+04
5.3163E+02	3.9965E+04
5.3211E+02	3.8456E+04
5.3259E+02	3.7025E+04
5.3308E+02	3.5660E+04
5.3356E+02	3.4355E+04
5.3404E+02	3.3101E+04
5.3452E+02	3.1881E+04
5.3500E+02	3.0705E+04
5.3549E+02	2.9570E+04
5.3597E+02	2.8480E+04
5.3645E+02	2.7436E+04
5.3693E+02	2.6447E+04
5.3741E+02	2.5512E+04
5.3790E+02	2.4602E+04
5.3838E+02	2.3715E+04
5.3886E+02	2.2870E+04
5.3934E+02	2.2035E+04
5.3983E+02	2.1258E+04
5.4031E+02	2.0498E+04
5.4079E+02	1.9758E+04
5.4127E+02	1.9031E+04
5.4175E+02	1.8328E+04
5.4224E+02	1.7647E+04
5.4272E+02	1.6995E+04
5.4320E+02	1.6368E+04
5.4368E+02	1.5764E+04
5.4416E+02	1.5188E+04
5.4465E+02	1.4638E+04
5.4513E+02	1.4106E+04
5.4561E+02	1.3597E+04
5.4609E+02	1.3105E+04
5.4657E+02	1.2625E+04
5.4706E+02	1.2150E+04
5.4754E+02	1.1695E+04
5.4802E+02	1.1271E+04
5.4850E+02	1.0875E+04
5.4899E+02	1.0488E+04
5.4947E+02	1.0102E+04
5.4995E+02	9.7310E+03
5.5043E+02	9.3789E+03
5.5091E+02	9.0458E+03
5.5140E+02	8.7271E+03
5.5188E+02	8.4267E+03
5.5236E+02	8.1335E+03
5.5284E+02	7.8351E+03
5.5332E+02	7.5289E+03
5.5381E+02	7.2407E+03
5.5429E+02	6.9721E+03
5.5477E+02	6.7195E+03
5.5525E+02	6.4815E+03
5.5573E+02	6.2568E+03
5.5622E+02	6.0339E+03
5.5670E+02	5.8083E+03
5.5718E+02	5.5881E+03
5.5766E+02	5.3893E+03
5.5815E+02	5.2080E+03
5.5863E+02	5.0291E+03
5.5911E+02	4.8408E+03
5.5959E+02	4.6551E+03
5.6007E+02	4.4864E+03
5.6056E+02	4.3350E+03
5.6104E+02	4.1864E+03
5.6152E+02	4.0371E+03
5.6200E+02	3.8888E+03
5.6248E+02	3.7433E+03
5.6297E+02	3.5974E+03
5.6345E+02	3.4587E+03
5.6393E+02	3.3264E+03
5.6441E+02	3.2017E+03
5.6490E+02	3.0878E+03
5.6538E+02	2.9906E+03
5.6586E+02	2.8932E+03
5.6634E+02	2.7914E+03
5.6682E+02	2.6870E+03
5.6731E+02	2.5817E+03
5.6779E+02	2.4753E+03
5.6827E+02	2.3740E+03
5.6875E+02	2.2834E+03
5.6923E+02	2.2010E+03
5.6972E+02	2.1105E+03
5.7020E+02	2.0115E+03
5.7068E+02	1.9159E+03
5.7116E+02	1.8398E+03
5.7164E+02	1.7749E+03
5.7213E+02	1.7084E+03
5.7261E+02	1.6358E+03
5.7309E+02	1.5627E+03
5.7357E+02	1.4926E+03
5.7406E+02	1.4243E+03
5.7454E+02	1.3533E+03
5.7502E+02	1.2754E+03
5.7550E+02	1.1989E+03
5.7598E+02	1.1245E+03
5.7647E+02	1.0532E+03
5.7695E+02	9.9062E+02
5.7743E+02	9.4549E+02
5.7791E+02	8.9972E+02
5.7839E+02	8.4335E+02
5.7888E+02	7.7346E+02
5.7936E+02	7.1095E+02
5.7984E+02	6.5559E+02
5.8032E+02	6.0799E+02
5.8080E+02	5.7409E+02
5.8129E+02	5.5268E+02
5.8177E+02	5.1808E+02
5.8225E+02	4.6255E+02
5.8273E+02	4.0046E+02
5.8322E+02	3.5233E+02
5.8370E+02	3.1596E+02
5.8418E+02	2.8137E+02
5.8466E+02	2.4662E+02
5.8514E+02	2.1025E+02
5.8563E+02	1.6664E+02
5.8611E+02	1.1842E+02
5.8659E+02	7.8985E+01
5.8707E+02	6.7200E+01
5.8755E+02	5.6458E+01
5.8804E+02	2.8290E+01
5.8852E+02	2.4508E+01
5.8900E+02	6.9832E+01
5.8948E+02	1.0234E+02
5.8997E+02	1.2683E+02
5.9045E+02	1.4569E+02
5.9093E+02	1.5472E+02
5.9141E+02	1.6813E+02
5.9189E+02	1.8866E+02
5.9238E+02	2.1216E+02
5.9286E+02	2.3237E+02
5.9334E+02	2.4903E+02
5.9382E+02	2.6039E+02
5.9430E+02	2.6370E+02
5.9479E+02	2.6298E+02
5.9527E+02	2.7032E+02
5.9575E+02	2.8388E+02
5.9623E+02	2.9210E+02
5.9671E+02	2.8324E+02
5.9720E+02	2.6732E+02
5.9768E+02	2.5778E+02
5.9816E+02	2.5571E+02
5.9864E+02	2.4812E+02
5.9913E+02	2.2101E+02
5.9961E+02	1.8900E+02
6.0009E+02	1.6465E+02
6.0057E+02	1.5759E+02
6.0105E+02	1.4516E+02
6.0154E+02	1.2071E+02
6.0202E+02	9.0270E+01
6.0250E+02	6.1877E+01
6.0298E+02	3.9561E+01
6.0346E+02	1.1288E+01
6.0395E+02	2.5610E+01
6.0443E+02	6.9453E+01
6.0491E+02	1.1615E+02
6.0539E+02	1.6554E+02
6.0587E+02	2.1602E+02
6.0636E+02	2.6506E+02
6.0684E+02	3.1458E+02
6.0732E+02	3.7186E+02
6.0780E+02	4.3653E+02
6.0829E+02	5.0540E+02
6.0877E+02	5.7872E+02
6.0925E+02	6.5324E+02
6.0973E+02	7.2193E+02
6.1021E+02	7.8197E+02
6.1070E+02	8.4771E+02
6.1118E+02	9.2597E+02
6.1166E+02	1.0143E+03
6.1214E+02	1.1109E+03
6.1262E+02	1.2249E+03
6.1311E+02	1.3345E+03
6.1359E+02	1.4281E+03
6.1407E+02	1.5174E+03
6.1455E+02	1.6297E+03
6.1504E+02	1.7733E+03
6.1552E+02	1.9186E+03
6.1600E+02	2.0560E+03
6.1648E+02	2.1893E+03
6.1696E+02	2.3405E+03
6.1745E+02	2.5099E+03
6.1793E+02	2.6897E+03
6.1841E+02	2.8731E+03
6.1889E+02	3.0614E+03
6.1937E+02	3.2618E+03
6.1986E+02	3.4760E+03
6.2034E+02	3.7005E+03
6.2082E+02	3.9324E+03
6.2130E+02	4.1736E+03
6.2178E+02	4.4252E+03
6.2227E+02	4.6909E+03
6.2275E+02	4.9663E+03
6.2323E+02	5.2521E+03
6.2371E+02	5.5480E+03
6.2420E+02	5.8533E+03
6.2468E+02	6.1680E+03
6.2516E+02	6.4926E+03
6.2564E+02	6.8270E+03
6.2612E+02	7.1722E+03
6.2661E+02	7.5248E+03
6.2709E+02	7.8868E+03
6.2757E+02	8.2557E+03
6.2805E+02	8.6323E+03
6.2853E+02	9.0153E+03
6.2902E+02	9.3975E+03
6.2950E+02	9.7790E+03
6.2998E+02	1.0159E+04
6.3046E+02	1.0543E+04
6.3094E+02	1.0922E+04
6.3143E+02	1.1289E+04
6.3191E+02	1.1643E+04
6.3239E+02	1.1982E+04
6.3287E+02	1.2310E+04
6.3336E+02	1.2618E+04
6.3384E+02	1.2905E+04
6.3432E+02	1.3177E+04
6.3480E+02	1.3406E+04
6.3528E+02	1.3584E+04
6.3577E+02	1.3712E+04
6.3625E+02	1.3794E+04
6.3673E+02	1.3830E+04
6.3721E+02	1.3818E+04
6.3769E+02	1.3758E+04
6.3818E+02	1.3649E+04
6.3866E+02	1.3499E+04
6.3914E+02	1.3306E+04
6.3962E+02	1.3068E+04
6.4011E+02	1.2773E+04
6.4059E+02	1.2432E+04
6.4107E+02	1.2087E+04
6.4155E+02	1.1734E+04
6.4203E+02	1.1360E+04
6.4252E+02	1.0947E+04
6.4300E+02	1.0513E+04
6.4348E+02	1.0078E+04
6.4396E+02	9.6425E+03
6.4444E+02	9.2148E+03
6.4493E+02	8.7901E+03
6.4541E+02	8.3747E+03
6.4589E+02	7.9774E+03
6.4637E+02	7.6027E+03
6.4685E+02	7.2354E+03
6.4734E+02	6.8743E+03
6.4782E+02	6.5198E+03
6.4830E+02	6.1786E+03
6.4878E+02	5.8478E+03
6.4927E+02	5.5310E+03
6.4975E+02	5.2230E+03
6.5023E+02	4.9294E+03
6.5071E+02	4.6552E+03
6.5119E+02	4.3977E+03
6.5168E+02	4.1526E+03
6.5216E+02	3.9166E+03
6.5264E+02	3.6904E+03
6.5312E+02	3.4716E+03
6.5360E+02	3.2630E+03
6.5409E+02	3.0625E+03
6.5457E+02	2.8717E+03
6.5505E+02	2.6931E+03
6.5553E+02	2.5295E+03
6.5602E+02	2.3822E+03
6.5650E+02	2.2332E+03
6.5698E+02	2.0687E+03
6.5746E+02	1.9118E+03
6.5794E+02	1.7746E+03
6.5843E+02	1.6593E+03
6.5891E+02	1.5519E+03
6.5939E+02	1.4542E+03
6.5987E+02	1.3634E+03
6.6035E+02	1.2754E+03
6.6084E+02	1.1904E+03
6.6132E+02	1.1127E+03
6.6180E+02	1.0461E+03
6.6228E+02	9.8147E+02
6.6276E+02	9.0524E+02
6.6325E+02	8.2368E+02
6.6373E+02	7.5202E+02
6.6421E+02	6.9902E+02
6.6469E+02	6.5354E+02
6.6518E+02	6.0966E+02
6.6566E+02	5.6838E+02
6.6614E+02	5.2943E+02
6.6662E+02	4.9327E+02
6.6710E+02	4.5900E+02
6.6759E+02	4.2525E+02
6.6807E+02	3.9250E+02
6.6855E+02	3.6772E+02
6.6903E+02	3.5197E+02
6.6951E+02	3.4051E+02
6.7000E+02	3.3212E+02
6.7048E+02	3.2624E+02
6.7096E+02	3.1501E+02
6.7144E+02	2.9741E+02
6.7192E+02	2.8140E+02
6.7241E+02	2.7295E+02
6.7289E+02	2.7020E+02
6.7337E+02	2.7051E+02
6.7385E+02	2.7325E+02
6.7434E+02	2.7732E+02
6.7482E+02	2.8278E+02
6.7530E+02	2.8797E+02
6.7578E+02	2.9118E+02
6.7626E+02	2.8806E+02
6.7675E+02	2.9030E+02
6.7723E+02	3.0513E+02
6.7771E+02	3.2523E+02
6.7819E+02	3.4139E+02
6.7867E+02	3.4951E+02
6.7916E+02	3.6432E+02
6.7964E+02	3.9013E+02
6.8012E+02	4.2172E+02
6.8060E+02	4.4736E+02
6.8109E+02	4.6696E+02
6.8157E+02	4.8665E+02
6.8205E+02	5.0897E+02
6.8253E+02	5.3296E+02
6.8301E+02	5.5797E+02
6.8350E+02	5.8355E+02
6.8398E+02	6.0844E+02
6.8446E+02	6.2797E+02
6.8494E+02	6.4833E+02
6.8542E+02	6.7533E+02
6.8591E+02	7.0884E+02
6.8639E+02	7.3746E+02
6.8687E+02	7.5106E+02
6.8735E+02	7.6564E+02
6.8783E+02	7.8938E+02
6.8832E+02	8.2448E+02
6.8880E+02	8.5472E+02
6.8928E+02	8.7907E+02
6.8976E+02	9.0146E+02
6.9025E+02	9.2462E+02
6.9073E+02	9.4847E+02
6.9121E+02	9.7204E+02
6.9169E+02	9.9506E+02
6.9217E+02	1.0193E+03
6.9266E+02	1.0497E+03
6.9314E+02	1.0817E+03
6.9362E+02	1.1075E+03
6.9410E+02	1.1242E+03
6.9458E+02	1.1368E+03
6.9507E+02	1.1463E+03
6.9555E+02	1.1542E+03
6.9603E+02	1.1620E+03
6.9651E+02	1.1722E+03
6.9699E+02	1.1798E+03
6.9748E+02	1.1863E+03
6.9796E+02	1.1889E+03
6.9844E+02	1.1803E+03
6.9892E+02	1.1565E+03
6.9941E+02	1.1395E+03
6.9989E+02	1.1390E+03
7.0037E+02	1.1454E+03
7.0085E+02	1.1341E+03
7.0133E+02	1.1069E+03
7.0182E+02	1.0754E+03
7.0230E+02	1.0436E+03
7.0278E+02	1.0125E+03
7.0326E+02	9.8576E+02
7.0374E+02	9.6152E+02
7.0423E+02	9.3168E+02
7.0471E+02	8.8695E+02
7.0519E+02	8.3994E+02
7.0567E+02	7.9673E+02
7.0616E+02	7.5757E+02
7.0664E+02	7.2243E+02
7.0712E+02	6.9267E+02
7.0760E+02	6.6478E+02
7.0808E+02	6.3774E+02
7.0857E+02	6.1177E+02
7.0905E+02	5.8458E+02
7.0953E+02	5.5636E+02
7.1001E+02	5.2513E+02
7.1049E+02	4.8246E+02
7.1098E+02	4.3642E+02
7.1146E+02	4.0795E+02
7.1194E+02	4.0236E+02
7.1242E+02	3.9529E+02
7.1290E+02	3.6405E+02
7.1339E+02	3.2406E+02
7.1387E+02	2.9143E+02
7.1435E+02	2.7410E+02
7.1483E+02	2.5741E+02
7.1532E+02	2.4203E+02
7.1580E+02	2.2485E+02
7.1628E+02	2.0081E+02
7.1676E+02	1.6599E+02
7.1724E+02	1.3765E+02
7.1773E+02	1.1936E+02
7.1821E+02	1.0688E+02
7.1869E+02	9.4664E+01
7.1917E+02	8.2386E+01
7.1965E+02	6.9032E+01
7.2014E+02	5.2643E+01
7.2062E+02	3.7585E+01
7.2110E+02	3.0656E+01
7.2158E+02	2.8876E+01
7.2207E+02	2.4636E+01
7.2255E+02	1.1541E+01
7.2303E+02	1.5439E+00
7.2351E+02	8.9302E+00
7.2399E+02	1.2381E+01
7.2448E+02	2.0094E+01
7.2496E+02	3.5199E+01
7.2544E+02	4.9929E+01
7.2592E+02	6.2414E+01
7.2640E+02	7.2538E+01
7.2689E+02	7.9263E+01
7.2737E+02	8.2715E+01
7.2785E+02	8.4091E+01
7.2833E+02	8.3136E+01
7.2881E+02	8.1094E+01
7.2930E+02	7.9722E+01
7.2978E+02	7.9139E+01
7.3026E+02	8.0433E+01
7.3074E+02	8.8190E+01
7.3123E+02	9.5157E+01
7.3171E+02	9.4530E+01
7.3219E+02	8.4962E+01
7.3267E+02	7.8591E+01
7.3315E+02	7.8752E+01
7.3364E+02	8.1751E+01
7.3412E+02	8.7328E+01
7.3460E+02	9.7084E+01
7.3508E+02	9.8634E+01
7.3556E+02	8.9776E+01
7.3605E+02	8.0672E+01
7.3653E+02	8.3383E+01
7.3701E+02	9.3901E+01
7.3749E+02	9.6466E+01
7.3797E+02	8.9054E+01
7.3846E+02	7.7974E+01
7.3894E+02	6.4777E+01
7.3942E+02	5.2697E+01
7.3990E+02	4.5895E+01
7.4039E+02	4.7196E+01
7.4087E+02	4.8653E+01
7.4135E+02	5.3285E+01
7.4183E+02	5.3822E+01
7.4231E+02	4.2181E+01
7.4280E+02	1.0583E+01
7.4328E+02	1.2750E+01
7.4376E+02	2.3143E+01
7.4424E+02	2.9526E+01
7.4472E+02	4.6640E+01
7.4521E+02	7.2712E+01
7.4569E+02	9.3472E+01
7.4617E+02	1.0453E+02
7.4665E+02	1.1169E+02
7.4714E+02	1.1827E+02
7.4762E+02	1.2631E+02
7.4810E+02	1.3955E+02
7.4858E+02	1.6315E+02
7.4906E+02	1.8777E+02
7.4955E+02	2.1114E+02
7.5003E+02	2.3345E+02
7.5051E+02	2.5463E+02
7.5099E+02	2.7392E+02
7.5147E+02	2.9445E+02
7.5196E+02	3.1814E+02
7.5244E+02	3.4240E+02
7.5292E+02	3.5798E+02
7.5340E+02	3.6527E+02
7.5388E+02	3.7668E+02
7.5437E+02	3.9734E+02
7.5485E+02	4.2429E+02
7.5533E+02	4.5690E+02
7.5581E+02	4.9271E+02
7.5630E+02	5.2368E+02
7.5678E+02	5.4055E+02
7.5726E+02	5.5740E+02
7.5774E+02	5.8036E+02
7.5822E+02	6.0902E+02
7.5871E+02	6.4169E+02
7.5919E+02	6.8033E+02
7.5967E+02	7.1906E+02
7.6015E+02	7.5703E+02
7.6063E+02	7.9371E+02
7.6112E+02	8.2696E+02
7.6160E+02	8.5648E+02
7.6208E+02	8.8661E+02
7.6256E+02	9.1746E+02
7.6304E+02	9.5142E+02
7.6353E+02	9.9526E+02
7.6401E+02	1.0470E+03
7.6449E+02	1.0974E+03
7.6497E+02	1.1395E+03
7.6546E+02	1.1798E+03
7.6594E+02	1.2203E+03
7.6642E+02	1.2616E+03
7.6690E+02	1.3074E+03
7.6738E+02	1.3592E+03
7.6787E+02	1.4136E+03
7.6835E+02	1.4693E+03
7.6883E+02	1.5269E+03
7.6931E+02	1.5854E+03
7.6979E+02	1.6444E+03
7.7028E+02	1.7034E+03
7.7076E+02	1.7599E+03
7.7124E+02	1.8165E+03
7.7172E+02	1.8782E+03
7.7221E+02	1.9451E+03
7.7269E+02	2.0160E+03
7.7317E+02	2.0987E+03
7.7365E+02	2.1786E+03
7.7413E+02	2.2443E+03
7.7462E+02	2.2911E+03
7.7510E+02	2.3457E+03
7.7558E+02	2.4146E+03
7.7606E+02	2.4837E+03
7.7654E+02	2.5425E+03
7.7703E+02	2.5904E+03
7.7751E+02	2.6496E+03
7.7799E+02	2.7209E+03
7.7847E+02	2.7965E+03
7.7895E+02	2.8722E+03
7.7944E+02	2.9472E+03
7.7992E+02	3.0193E+03
7.8040E+02	3.0872E+03
7.8088E+02	3.1570E+03
7.8137E+02	3.2387E+03
7.8185E+02	3.3192E+03
7.8233E+02	3.3874E+03
7.8281E+02	3.4352E+03
7.8329E+02	3.4887E+03
7.8378E+02	3.5535E+03
7.8426E+02	3.6172E+03
7.8474E+02	3.6680E+03
7.8522E+02	3.7059E+03
7.8570E+02	3.7525E+03
7.8619E+02	3.8095E+03
7.8667E+02	3.8636E+03
7.8715E+02	3.8972E+03
7.8763E+02	3.9209E+03
7.8812E+02	3.9536E+03
7.8860E+02	3.9999E+03
7.8908E+02	4.0403E+03
7.8956E+02	4.0630E+03
7.9004E+02	4.0794E+03
7.9053E+02	4.0984E+03
7.9101E+02	4.1229E+03
7.9149E+02	4.1413E+03
7.9197E+02	4.1527E+03
7.9245E+02	4.1588E+03
7.9294E+02	4.1622E+03
7.9342E+02	4.1634E+03
7.9390E+02	4.1576E+03
7.9438E+02	4.1436E+03
7.9486E+02	4.1242E+03
7.9535E+02	4.0994E+03
7.9583E+02	4.0738E+03
7.9631E+02	4.0541E+03
7.9679E+02	4.0440E+03
7.9728E+02	4.0292E+03
7.9776E+02	4.0007E+03
7.9824E+02	3.9669E+03
7.9872E+02	3.9362E+03
7.9920E+02	3.9130E+03
7.9969E+02	3.8792E+03
8.0017E+02	3.8320E+03
8.0065E+02	3.7845E+03
8.0113E+02	3.7497E+03
8.0161E+02	3.7233E+03
8.0210E+02	3.6869E+03
8.0258E+02	3.6380E+03
8.0306E+02	3.5877E+03
8.0354E+02	3.5479E+03
8.0402E+02	3.5112E+03
8.0451E+02	3.4681E+03
8.0499E+02	3.4141E+03
8.0547E+02	3.3630E+03
8.0595E+02	3.3223E+03
8.0644E+02	3.2816E+03
8.0692E+02	3.2317E+03
8.0740E+02	3.1684E+03
8.0788E+02	3.1163E+03
8.0836E+02	3.0791E+03
8.0885E+02	3.0435E+03
8.0933E+02	2.9939E+03
8.0981E+02	2.9354E+03
8.1029E+02	2.8806E+03
8.1077E+02	2.8315E+03
8.1126E+02	2.7826E+03
8.1174E+02	2.7270E+03
8.1222E+02	2.6722E+03
8.1270E+02	2.6261E+03
8.1319E+02	2.5955E+03
8.1367E+02	2.5572E+03
8.1415E+02	2.5038E+03
8.1463E+02	2.4498E+03
8.1511E+02	2.4088E+03
8.1560E+02	2.3812E+03
8.1608E+02	2.3492E+03
8.1656E+02	2.3117E+03
8.1704E+02	2.2702E+03
8.1752E+02	2.2216E+03
8.1801E+02	2.1716E+03
8.1849E+02	2.1283E+03
8.1897E+02	2.0932E+03
8.1945E+02	2.0614E+03
8.1993E+02	2.0333E+03
8.2042E+02	2.0060E+03
8.2090E+02	1.9777E+03
8.2138E+02	1.9489E+03
8.2186E+02	1.9179E+03
8.2235E+02	1.8843E+03
8.2283E+02	1.8495E+03
8.2331E+02	1.8151E+03
8.2379E+02	1.7808E+03
8.2427E+02	1.7462E+03
8.2476E+02	1.7111E+03
8.2524E+02	1.6801E+03
8.2572E+02	1.6603E+03
8.2620E+02	1.6446E+03
8.2668E+02	1.6264E+03
8.2717E+02	1.6047E+03
8.2765E+02	1.5818E+03
8.2813E+02	1.5553E+03
8.2861E+02	1.5302E+03
8.2909E+02	1.5094E+03
8.2958E+02	1.4935E+03
8.3006E+02	1.4746E+03
8.3054E+02	1.4524E+03
8.3102E+02	1.4295E+03
8.3151E+02	1.4065E+03
8.3199E+02	1.3843E+03
8.3247E+02	1.3655E+03
8.3295E+02	1.3500E+03
8.3343E+02	1.3354E+03
8.3392E+02	1.3200E+03
8.3440E+02	1.3055E+03
8.3488E+02	1.2948E+03
8.3536E+02	1.2885E+03
8.3584E+02	1.2739E+03
8.3633E+02	1.2464E+03
8.3681E+02	1.2199E+03
8.3729E+02	1.2023E+03
8.3777E+02	1.1918E+03
8.3826E+02	1.1757E+03
8.3874E+02	1.1546E+03
8.3922E+02	1.1334E+03
8.3970E+02	1.1147E+03
8.4018E+02	1.0983E+03
8.4067E+02	1.0844E+03
8.4115E+02	1.0723E+03
8.4163E+02	1.0617E+03
8.4211E+02	1.0562E+03
8.4259E+02	1.0483E+03
8.4308E+02	1.0349E+03
8.4356E+02	1.0170E+03
8.4404E+02	9.9873E+02
8.4452E+02	9.7898E+02
8.4500E+02	9.6479E+02
8.4549E+02	9.6327E+02
8.4597E+02	9.6584E+02
8.4645E+02	9.5416E+02
8.4693E+02	9.3225E+02
8.4742E+02	9.1299E+02
8.4790E+02	9.0357E+02
8.4838E+02	8.9625E+02
8.4886E+02	8.8910E+02
8.4934E+02	8.8131E+02
8.4983E+02	8.7065E+02
8.5031E+02	8.5621E+02
8.5079E+02	8.4082E+02
8.5127E+02	8.2453E+02
8.5175E+02	8.0853E+02
8.5224E+02	7.9667E+02
8.5272E+02	7.8832E+02
8.5320E+02	7.7921E+02
8.5368E+02	7.6709E+02
8.5417E+02	7.5553E+02
8.5465E+02	7.4749E+02
8.5513E+02	7.4152E+02
8.5561E+02	7.3547E+02
8.5609E+02	7.3201E+02
8.5658E+02	7.2410E+02
8.5706E+02	7.0859E+02
8.5754E+02	6.9121E+02
8.5802E+02	6.7915E+02
8.5850E+02	6.7188E+02
8.5899E+02	6.6356E+02
8.5947E+02	6.5337E+02
8.5995E+02	6.4234E+02
8.6043E+02	6.2882E+02
8.6091E+02	6.1578E+02
8.6140E+02	6.1016E+02
8.6188E+02	6.1848E+02
8.6236E+02	6.2095E+02
8.6284E+02	6.0081E+02
8.6333E+02	5.7744E+02
8.6381E+02	5.7101E+02
8.6429E+02	5.9257E+02
8.6477E+02	5.9534E+02
8.6525E+02	5.7476E+02
8.6574E+02	5.4782E+02
8.6622E+02	5.2953E+02
8.6670E+02	5.1800E+02
8.6718E+02	5.1011E+02
8.6766E+02	5.0584E+02
8.6815E+02	4.9849E+02
8.6863E+02	4.7882E+02
8.6911E+02	4.5750E+02
8.6959E+02	4.4311E+02
8.7007E+02	4.3826E+02
8.7056E+02	4.3044E+02
8.7104E+02	4.1798E+02
8.7152E+02	4.0513E+02
8.7200E+02	3.9469E+02
8.7249E+02	3.8626E+02
8.7297E+02	3.7780E+02
8.7345E+02	3.6926E+02
8.7393E+02	3.6016E+02
8.7441E+02	3.4673E+02
8.7490E+02	3.3440E+02
8.7538E+02	3.3236E+02
8.7586E+02	3.3882E+02
8.7634E+02	3.3621E+02
8.7682E+02	3.0790E+02
8.7731E+02	2.8213E+02
8.7779E+02	2.6848E+02
8.7827E+02	2.6447E+02
8.7875E+02	2.5636E+02
8.7924E+02	2.4364E+02
8.7972E+02	2.3152E+02
8.8020E+02	2.2400E+02
8.8068E+02	2.1738E+02
8.8116E+02	2.0603E+02
8.8165E+02	1.9212E+02
8.8213E+02	1.8024E+02
8.8261E+02	1.7368E+02
8.8309E+02	1.6699E+02
8.8357E+02	1.5820E+02
8.8406E+02	1.4880E+02
8.8454E+02	1.3995E+02
8.8502E+02	1.3121E+02
8.8550E+02	1.2664E+02
8.8598E+02	1.2858E+02
8.8647E+02	1.3093E+02
8.8695E+02	1.2288E+02
8.8743E+02	1.0876E+02
8.8791E+02	9.8337E+01
8.8840E+02	9.5759E+01
8.8888E+02	9.2561E+01
8.8936E+02	8.4623E+01
8.8984E+02	7.4597E+01
8.9032E+02	6.4277E+01
8.9081E+02	5.1036E+01
8.9129E+02	4.7669E+01
8.9177E+02	5.7483E+01
8.9225E+02	6.6789E+01
8.9273E+02	5.9580E+01
8.9322E+02	4.2397E+01
8.9370E+02	3.3525E+01
8.9418E+02	3.4540E+01
8.9466E+02	3.6251E+01
8.9514E+02	3.4556E+01
8.9563E+02	3.0365E+01
8.9611E+02	2.3732E+01
8.9659E+02	1.4623E+01
8.9707E+02	3.4976E+00
8.9756E+02	1.3057E+01
8.9804E+02	2.2699E+01
8.9852E+02	1.5721E+01
8.9900E+02	1.7207E+00
8.9948E+02	8.1497E+00
8.9997E+02	4.5442E+00
9.0045E+02	3.4590E+00
9.0093E+02	1.8683E+01
9.0141E+02	3.1806E+01
9.0189E+02	3.5481E+01
9.0238E+02	3.1996E+01
9.0286E+02	2.9349E+01
9.0334E+02	2.6309E+01
9.0382E+02	2.8121E+01
9.0431E+02	3.8420E+01
9.0479E+02	5.1087E+01
9.0527E+02	5.3316E+01
9.0575E+02	4.6548E+01
9.0623E+02	3.9732E+01
9.0672E+02	3.4978E+01
9.0720E+02	3.1752E+01
9.0768E+02	3.0748E+01
9.0816E+02	3.0473E+01
9.0864E+02	2.9115E+01
9.0913E+02	2.4778E+01
9.0961E+02	2.1905E+01
9.1009E+02	2.0436E+01
9.1057E+02	2.0649E+01
9.1105E+02	2.4594E+01
9.1154E+02	3.1580E+01
9.1202E+02	3.2814E+01
9.1250E+02	2.7589E+01
9.1298E+02	2.1226E+01
9.1347E+02	1.4928E+01
9.1395E+02	1.1738E+01
9.1443E+02	1.7543E+01
9.1491E+02	3.3415E+01
9.1539E+02	4.0732E+01
9.1588E+02	3.0441E+01
9.1636E+02	2.0125E+01
9.1684E+02	1.7190E+01
9.1732E+02	2.0189E+01
9.1780E+02	2.0914E+01
9.1829E+02	1.9357E+01
9.1877E+02	1.6579E+01
9.1925E+02	1.2938E+01
9.1973E+02	8.5037E+00
9.2022E+02	1.2175E+00
9.2070E+02	6.7280E+00
9.2118E+02	9.9755E+00
9.2166E+02	2.5975E+00
9.2214E+02	3.7747E+00
9.2263E+02	8.2001E+00
9.2311E+02	1.0196E+01
9.2359E+02	7.8141E+00
9.2407E+02	1.2631E+00
9.2455E+02	2.9735E+00
9.2504E+02	3.2312E+00
9.2552E+02	2.2239E+00
9.2600E+02	2.0175E+00
9.2648E+02	2.4272E+00
9.2696E+02	2.8566E+00
9.2745E+02	2.3232E+00
9.2793E+02	4.3990E+00
9.2841E+02	1.2018E+01
9.2889E+02	1.8881E+01
9.2938E+02	2.0753E+01
9.2986E+02	1.7731E+01
9.3034E+02	1.1612E+01
9.3082E+02	2.5146E+00
9.3130E+02	5.4131E+00
9.3179E+02	6.8285E+00
9.3227E+02	7.1649E+00
9.3275E+02	1.5204E+01
9.3323E+02	2.8873E+01
9.3371E+02	3.2929E+01
9.3420E+02	1.2185E+01
9.3468E+02	2.6550E+00
9.3516E+02	1.3807E+00
9.3564E+02	9.5477E+00
9.3612E+02	9.9376E+00
9.3661E+02	7.0410E-01
9.3709E+02	8.1421E+00
9.3757E+02	1.3956E+01
9.3805E+02	1.6593E+01
9.3854E+02	1.3594E+01
9.3902E+02	8.0316E+00
9.3950E+02	4.6193E+00
9.3998E+02	6.1176E+00
9.4046E+02	7.2064E+00
9.4095E+02	7.5029E+00
9.4143E+02	7.6879E+00
9.4191E+02	9.2410E+00
9.4239E+02	1.1676E+01
9.4287E+02	1.0281E+01
9.4336E+02	4.5215E+00
9.4384E+02	1.5100E-01
9.4432E+02	2.9896E+00
9.4480E+02	8.5206E+00
9.4529E+02	1.3231E+01
9.4577E+02	1.6795E+01
9.4625E+02	2.0109E+01
9.4673E+02	2.3610E+01
9.4721E+02	2.6204E+01
9.4770E+02	2.7064E+01
9.4818E+02	2.6842E+01
9.4866E+02	2.7682E+01
9.4914E+02	2.9718E+01
9.4962E+02	3.3963E+01
9.5011E+02	4.3123E+01
9.5059E+02	5.1965E+01
9.5107E+02	5.7150E+01
9.5155E+02	5.9423E+01
9.5203E+02	5.9921E+01
9.5252E+02	5.6625E+01
9.5300E+02	5.6396E+01
9.5348E+02	6.0692E+01
9.5396E+02	6.6258E+01
9.5445E+02	6.7761E+01
9.5493E+02	6.7042E+01
9.5541E+02	7.1826E+01
9.5589E+02	8.3663E+01
9.5637E+02	9.3701E+01
9.5686E+02	9.4518E+01
9.5734E+02	9.2221E+01
9.5782E+02	9.1006E+01
9.5830E+02	9.1095E+01
9.5878E+02	9.1842E+01
9.5927E+02	9.3807E+01
9.5975E+02	9.4468E+01
9.6023E+02	9.1865E+01
9.6071E+02	8.7670E+01
9.6119E+02	8.5427E+01
9.6168E+02	8.4994E+01
9.6216E+02	8.6141E+01
9.6264E+02	9.0116E+01
9.6312E+02	9.4261E+01
9.6361E+02	9.8008E+01
9.6409E+02	1.0136E+02
9.6457E+02	1.0463E+02
9.6505E+02	1.0843E+02
9.6553E+02	1.0869E+02
9.6602E+02	1.0428E+02
9.6650E+02	9.8486E+01
9.6698E+02	9.4616E+01
9.6746E+02	9.2190E+01
9.6794E+02	9.0307E+01
9.6843E+02	8.8501E+01
9.6891E+02	8.9111E+01
9.6939E+02	9.4072E+01
9.6987E+02	1.0067E+02
9.7036E+02	1.0877E+02
9.7084E+02	1.1801E+02
9.7132E+02	1.2005E+02
9.7180E+02	1.1438E+02
9.7228E+02	1.1370E+02
9.7277E+02	1.3093E+02
9.7325E+02	1.5147E+02
9.7373E+02	1.6020E+02
9.7421E+02	1.5884E+02
9.7469E+02	1.5161E+02
9.7518E+02	1.3229E+02
9.7566E+02	1.1705E+02
9.7614E+02	1.0852E+02
9.7662E+02	1.0425E+02
9.7710E+02	1.0013E+02
9.7759E+02	9.6502E+01
9.7807E+02	9.9569E+01
9.7855E+02	1.1114E+02
9.7903E+02	1.1968E+02
9.7952E+02	1.1011E+02
9.8000E+02	9.6469E+01
9.8048E+02	9.3057E+01
9.8096E+02	1.0337E+02
9.8144E+02	1.0843E+02
9.8193E+02	1.0410E+02
9.8241E+02	1.0285E+02
9.8289E+02	1.1347E+02
9.8337E+02	1.2955E+02
9.8385E+02	1.2839E+02
9.8434E+02	1.1390E+02
9.8482E+02	1.0213E+02
9.8530E+02	1.0336E+02
9.8578E+02	1.0655E+02
9.8627E+02	1.0685E+02
9.8675E+02	1.0556E+02
9.8723E+02	1.0497E+02
9.8771E+02	1.0514E+02
9.8819E+02	1.0539E+02
9.8868E+02	1.0549E+02
9.8916E+02	1.0518E+02
9.8964E+02	1.0435E+02
9.9012E+02	1.0341E+02
9.9060E+02	1.0263E+02
9.9109E+02	1.0168E+02
9.9157E+02	1.0065E+02
9.9205E+02	1.0150E+02
9.9253E+02	1.0272E+02
9.9301E+02	1.0299E+02
9.9350E+02	1.0176E+02
9.9398E+02	9.9577E+01
9.9446E+02	9.7058E+01
9.9494E+02	9.4084E+01
9.9543E+02	8.9447E+01
9.9591E+02	8.5492E+01
9.9639E+02	8.5279E+01
9.9687E+02	8.6981E+01
9.9735E+02	8.7875E+01
9.9784E+02	8.8971E+01
9.9832E+02	8.6698E+01
9.9880E+02	7.8121E+01
9.9928E+02	7.0548E+01
9.9976E+02	7.3149E+01
1.0002E+03	8.3591E+01
1.0007E+03	8.7999E+01
1.0012E+03	8.5650E+01
1.0017E+03	8.2683E+01
1.0022E+03	8.4688E+01
1.0027E+03	8.6921E+01
1.0031E+03	8.5722E+01
1.0036E+03	8.1398E+01
1.0041E+03	7.7925E+01
1.0046E+03	7.5242E+01
1.0051E+03	7.3766E+01
1.0056E+03	7.3934E+01
1.0060E+03	7.4427E+01
1.0065E+03	7.2729E+01
1.0070E+03	7.0000E+01
1.0075E+03	6.8576E+01
1.0080E+03	6.9762E+01
1.0084E+03	7.1209E+01
1.0089E+03	7.2675E+01
1.0094E+03	7.3332E+01
1.0099E+03	7.2120E+01
1.0104E+03	6.8821E+01
1.0109E+03	6.7254E+01
1.0113E+03	6.7532E+01
1.0118E+03	6.9773E+01
1.0123E+03	7.5438E+01
1.0128E+03	8.1559E+01
1.0133E+03	8.6893E+01
1.0137E+03	9.0843E+01
1.0142E+03	9.0719E+01
1.0147E+03	8.2144E+01
1.0152E+03	7.7203E+01
1.0157E+03	7.9136E+01
1.0162E+03	8.3005E+01
1.0166E+03	7.9750E+01
1.0171E+03	7.2210E+01
1.0176E+03	6.9352E+01
1.0181E+03	7.2870E+01
1.0186E+03	7.8798E+01
1.0190E+03	8.9926E+01
1.0195E+03	9.8197E+01
1.0200E+03	9.6396E+01
1.0205E+03	8.5189E+01
1.0210E+03	7.9433E+01
1.0215E+03	7.9609E+01
1.0219E+03	8.0936E+01
1.0224E+03	8.2211E+01
1.0229E+03	8.2237E+01
1.0234E+03	7.7950E+01
1.0239E+03	7.1391E+01
1.0244E+03	6.6606E+01
1.0248E+03	6.6641E+01
1.0253E+03	6.5622E+01
1.0258E+03	6.1216E+01
1.0263E+03	5.7995E+01
1.0268E+03	6.2198E+01
1.0272E+03	7.2485E+01
1.0277E+03	7.9719E+01
1.0282E+03	8.3376E+01
1.0287E+03	8.4951E+01
1.0292E+03	8.4013E+01
1.0297E+03	8.2561E+01
1.0301E+03	8.2539E+01
1.0306E+03	8.3441E+01
1.0311E+03	8.1625E+01
1.0316E+03	7.5668E+01
1.0321E+03	7.2962E+01
1.0325E+03	7.6491E+01
1.0330E+03	8.1008E+01
1.0335E+03	7.7267E+01
1.0340E+03	6.9597E+01
1.0345E+03	6.5538E+01
1.0350E+03	6.7345E+01
1.0354E+03	7.0717E+01
1.0359E+03	7.6215E+01
1.0364E+03	8.1320E+01
1.0369E+03	8.5144E+01
1.0374E+03	8.7522E+01
1.0379E+03	8.7004E+01
1.0383E+03	8.3890E+01
1.0388E+03	8.0275E+01
1.0393E+03	7.6362E+01
1.0398E+03	7.2964E+01
1.0403E+03	7.0372E+01
1.0407E+03	6.8827E+01
1.0412E+03	6.8839E+01
1.0417E+03	7.1358E+01
1.0422E+03	7.1958E+01
1.0427E+03	6.9988E+01
1.0432E+03	6.7453E+01
1.0436E+03	6.5266E+01
1.0441E+03	6.4271E+01
1.0446E+03	6.6865E+01
1.0451E+03	7.2983E+01
1.0456E+03	7.7741E+01
1.0460E+03	7.9353E+01
1.0465E+03	7.9162E+01
1.0470E+03	7.6831E+01
1.0475E+03	7.3500E+01
1.0480E+03	7.3043E+01
1.0485E+03	7.4891E+01
1.0489E+03	7.4421E+01
1.0494E+03	6.9367E+01
1.0499E+03	6.4960E+01
1.0504E+03	6.5823E+01
1.0509E+03	6.8839E+01
1.0514E+03	7.1111E+01
1.0518E+03	7.2581E+01
1.0523E+03	7.2059E+01
1.0528E+03	6.8810E+01
1.0533E+03	6.6877E+01
1.0538E+03	7.0433E+01
1.0542E+03	7.5497E+01
1.0547E+03	7.3902E+01
1.0552E+03	6.8191E+01
1.0557E+03	6.5045E+01
1.0562E+03	6.9973E+01
1.0567E+03	7.3281E+01
1.0571E+03	7.3971E+01
1.0576E+03	7.2264E+01
1.0581E+03	6.7064E+01
1.0586E+03	5.9177E+01
1.0591E+03	5.3668E+01
1.0595E+03	5.0949E+01
1.0600E+03	5.1249E+01
1.0605E+03	5.8727E+01
1.0610E+03	6.5566E+01
1.0615E+03	6.5209E+01
1.0620E+03	6.8866E+01
1.0624E+03	5.9488E+01
1.0629E+03	6.6095E+01
1.0634E+03	6.7318E+01
1.0639E+03	5.8672E+01
1.0644E+03	4.7745E+01
1.0649E+03	4.3065E+01
1.0653E+03	4.2321E+01
1.0658E+03	4.2568E+01
1.0663E+03	4.3405E+01
1.0668E+03	4.5064E+01
1.0673E+03	4.9188E+01
1.0677E+03	5.1014E+01
1.0682E+03	4.7058E+01
1.0687E+03	3.9465E+01
1.0692E+03	3.5561E+01
1.0697E+03	3.4495E+01
1.0702E+03	3.3294E+01
1.0706E+03	3.0091E+01
1.0711E+03	2.7300E+01
1.0716E+03	2.6818E+01
1.0721E+03	2.6680E+01
1.0726E+03	2.4024E+01
1.0730E+03	1.8269E+01
1.0735E+03	1.9221E+01
1.0740E+03	2.7410E+01
1.0745E+03	3.4678E+01
1.0750E+03	3.5240E+01
1.0755E+03	3.1694E+01
1.0759E+03	2.3009E+01
1.0764E+03	1.1794E+01
1.0769E+03	8.1741E+00
1.0774E+03	1.5444E+01
1.0779E+03	2.2830E+01
1.0783E+03	2.9426E+01
1.0788E+03	3.3377E+01
1.0793E+03	2.9906E+01
1.0798E+03	2.2774E+01
1.0803E+03	1.9654E+01
1.0808E+03	2.1868E+01
1.0812E+03	2.1424E+01
1.0817E+03	1.0061E+01
1.0822E+03	2.3432E+00
1.0827E+03	4.9376E+00
1.0832E+03	1.4174E+01
1.0837E+03	1.9296E+01
1.0841E+03	2.0543E+01
1.0846E+03	1.8408E+01
1.0851E+03	1.1171E+01
1.0856E+03	5.6375E+00
1.0861E+03	8.2138E+00
1.0865E+03	1.2862E+01
1.0870E+03	1.3408E+01
1.0875E+03	9.0220E+00
1.0880E+03	1.0074E+01
1.0885E+03	1.7124E+01
1.0890E+03	2.1600E+01
1.0894E+03	1.5401E+01
1.0899E+03	6.2721E+00
1.0904E+03	1.3286E+00
1.0909E+03	2.5842E-01
1.0914E+03	2.9541E-02
1.0918E+03	4.1027E+00
1.0923E+03	4.4924E+00
1.0928E+03	7.8058E-01
1.0933E+03	5.0603E+00
1.0938E+03	3.8281E-01
1.0943E+03	8.8229E+00
1.0947E+03	1.4150E+01
1.0952E+03	1.5303E+01
1.0957E+03	1.4499E+01
1.0962E+03	9.7371E+00
1.0967E+03	6.8775E+00
1.0972E+03	7.8958E+00
1.0976E+03	1.1039E+01
1.0981E+03	1.3232E+01
1.0986E+03	1.4658E+01
1.0991E+03	1.6584E+01
1.0996E+03	1.9382E+01
1.1000E+03	2.1018E+01
1.1005E+03	1.8062E+01
1.1010E+03	1.5400E+01
1.1015E+03	1.7088E+01
1.1020E+03	2.2508E+01
1.1025E+03	2.5904E+01
1.1029E+03	2.7110E+01
1.1034E+03	2.7012E+01
1.1039E+03	2.5805E+01
1.1044E+03	2.3914E+01
1.1049E+03	1.9833E+01
1.1053E+03	1.6048E+01
1.1058E+03	1.6282E+01
1.1063E+03	2.2427E+01
1.1068E+03	2.6581E+01
1.1073E+03	2.8586E+01
1.1078E+03	2.9564E+01
1.1082E+03	2.9849E+01
1.1087E+03	2.9503E+01
1.1092E+03	2.7607E+01
1.1097E+03	2.4941E+01
1.1102E+03	2.3262E+01
1.1107E+03	2.2250E+01
1.1111E+03	2.3840E+01
1.1116E+03	3.0190E+01
1.1121E+03	3.5578E+01
1.1126E+03	3.3530E+01
1.1131E+03	2.6293E+01
1.1135E+03	2.1266E+01
1.1140E+03	1.8723E+01
1.1145E+03	1.9028E+01
1.1150E+03	2.4281E+01
1.1155E+03	3.0266E+01
1.1160E+03	3.7326E+01
1.1164E+03	4.2739E+01
1.1169E+03	4.1282E+01
1.1174E+03	3.3412E+01
1.1179E+03	2.5910E+01
1.1184E+03	1.9418E+01
1.1188E+03	1.6531E+01
1.1193E+03	2.3546E+01
1.1198E+03	3.0925E+01
1.1203E+03	3.0390E+01
1.1208E+03	2.4372E+01
1.1213E+03	2.3689E+01
1.1217E+03	2.8952E+01
1.1222E+03	3.3170E+01
1.1227E+03	3.4797E+01
1.1232E+03	3.4241E+01
1.1237E+03	3.0583E+01
1.1242E+03	2.5988E+01
1.1246E+03	2.2657E+01
1.1251E+03	2.0996E+01
1.1256E+03	1.9937E+01
1.1261E+03	1.9414E+01
1.1266E+03	1.9758E+01
1.1270E+03	2.1335E+01
1.1275E+03	2.3469E+01
1.1280E+03	2.5440E+01
1.1285E+03	2.7036E+01
1.1290E+03	2.7949E+01
1.1295E+03	2.8246E+01
1.1299E+03	2.7247E+01
1.1304E+03	2.4199E+01
1.1309E+03	2.1245E+01
1.1314E+03	2.0122E+01
1.1319E+03	1.9888E+01
1.1323E+03	1.6569E+01
1.1328E+03	1.1435E+01
1.1333E+03	8.5859E+00
1.1338E+03	1.0548E+01
1.1343E+03	1.4052E+01
1.1348E+03	2.1506E+01
1.1352E+03	2.6727E+01
1.1357E+03	2.1705E+01
1.1362E+03	8.4677E+00
1.1367E+03	3.9896E+00
1.1372E+03	7.7304E+00
1.1377E+03	1.2591E+01
1.1381E+03	1.5948E+01
1.1386E+03	1.7792E+01
1.1391E+03	1.7406E+01
1.1396E+03	1.5781E+01
1.1401E+03	1.4019E+01
1.1405E+03	1.2135E+01
1.1410E+03	1.1716E+01
1.1415E+03	1.2898E+01
1.1420E+03	1.3263E+01
1.1425E+03	9.6432E+00
1.1430E+03	5.8054E+00
1.1434E+03	4.5168E+00
1.1439E+03	5.3132E+00
1.1444E+03	6.3526E+00
1.1449E+03	7.8775E+00
1.1454E+03	6.9676E+00
1.1458E+03	2.6575E+00
1.1463E+03	6.8250E-01
1.1468E+03	3.3549E+00
1.1473E+03	9.0394E+00
1.1478E+03	1.0550E+01
1.1483E+03	7.4988E+00
1.1487E+03	5.7427E+00
1.1492E+03	6.1114E+00
1.1497E+03	4.4752E+00
1.1502E+03	1.0566E+00
1.1507E+03	6.8926E+00
1.1511E+03	8.9769E+00
1.1516E+03	7.9648E+00
1.1521E+03	4.2838E+00
1.1526E+03	2.6028E+00
1.1531E+03	6.8585E+00
1.1536E+03	7.4094E+00
1.1540E+03	7.2562E+00
1.1545E+03	7.3788E+00
1.1550E+03	7.8582E+00
1.1555E+03	9.5659E+00
1.1560E+03	1.1494E+01
1.1565E+03	1.1597E+01
1.1569E+03	8.6034E+00
1.1574E+03	6.3583E+00
1.1579E+03	6.2754E+00
1.1584E+03	5.1245E+00
1.1589E+03	3.9502E-01
1.1593E+03	6.2435E+00
1.1598E+03	1.0114E+01
1.1603E+03	1.1831E+01
1.1608E+03	1.3119E+01
1.1613E+03	1.6507E+01
1.1618E+03	1.5702E+01
1.1622E+03	6.3535E+00
1.1627E+03	3.1648E+00
1.1632E+03	6.5574E+00
1.1637E+03	4.8225E+00
1.1642E+03	1.7695E+00
1.1646E+03	1.8876E+00
1.1651E+03	2.8489E+00
1.1656E+03	4.7222E+00
1.1661E+03	9.7215E+00
1.1666E+03	6.9670E+00
1.1671E+03	1.8078E+00
1.1675E+03	8.5751E-01
1.1680E+03	1.2682E+00
1.1685E+03	1.2014E+00
1.1690E+03	7.1420E-01
1.1695E+03	2.8305E-01
1.1700E+03	3.0323E+00
1.1704E+03	4.8709E+00
1.1709E+03	3.9375E+00
1.1714E+03	1.8064E+00
1.1719E+03	2.2321E-01
1.1724E+03	7.9712E-01
1.1728E+03	9.6964E-01
1.1733E+03	2.6733E-01
1.1738E+03	9.7720E-01
1.1743E+03	3.3648E+00
1.1748E+03	5.3362E+00
1.1753E+03	5.8732E+00
1.1757E+03	5.3566E+00
1.1762E+03	4.3815E+00
1.1767E+03	2.9537E+00
1.1772E+03	1.1985E+00
1.1777E+03	9.1223E-01
1.1781E+03	2.9949E+00
1.1786E+03	5.6888E+00
1.1791E+03	7.3750E+00
1.1796E+03	6.3355E+00
1.1801E+03	3.3508E+00
1.1806E+03	6.4609E-01
1.1810E+03	1.8205E+00
1.1815E+03	2.9651E+00
1.1820E+03	2.3429E+00
1.1825E+03	2.0203E+00
1.1830E+03	5.1479E+00
1.1835E+03	8.2729E+00
1.1839E+03	7.0860E+00
1.1844E+03	2.7241E+00
1.1849E+03	4.8215E+00
1.1854E+03	1.4384E+01
1.1859E+03	1.8555E+01
1.1863E+03	1.2835E+01
1.1868E+03	5.8152E+00
1.1873E+03	4.5800E+00
1.1878E+03	7.0627E+00
1.1883E+03	1.3155E+01
1.1888E+03	2.2355E+01
1.1892E+03	2.5257E+01
1.1897E+03	2.1129E+01
1.1902E+03	1.7473E+01
1.1907E+03	1.6779E+01
1.1912E+03	1.7172E+01
1.1916E+03	1.6712E+01
1.1921E+03	1.6262E+01
1.1926E+03	1.7206E+01
1.1931E+03	1.9802E+01
1.1936E+03	2.0254E+01
1.1941E+03	1.8351E+01
1.1945E+03	1.5105E+01
1.1950E+03	9.6504E+00
1.1955E+03	5.6957E+00
1.1960E+03	9.0330E+00
1.1965E+03	1.5520E+01
1.1970E+03	2.0000E+01
1.1974E+03	2.1840E+01
1.1979E+03	2.2013E+01
1.1984E+03	2.0072E+01
1.1989E+03	1.9694E+01
1.1994E+03	2.4244E+01
1.1998E+03	2.8705E+01
1.2003E+03	2.5686E+01
1.2008E+03	1.9459E+01
1.2013E+03	1.6060E+01
1.2018E+03	1.6563E+01
1.2023E+03	1.8433E+01
1.2027E+03	2.1921E+01
1.2032E+03	2.5275E+01
1.2037E+03	2.8207E+01
1.2042E+03	2.9551E+01
1.2047E+03	2.7301E+01
1.2051E+03	2.2991E+01
1.2056E+03	1.8703E+01
1.2061E+03	1.3410E+01
1.2066E+03	1.3344E+01
1.2071E+03	1.9526E+01
1.2076E+03	2.4402E+01
1.2080E+03	2.1990E+01
1.2085E+03	1.6463E+01
1.2090E+03	1.1397E+01
1.2095E+03	7.6153E+00
1.2100E+03	6.7756E+00
1.2104E+03	9.8700E+00
1.2109E+03	1.3418E+01
1.2114E+03	1.7878E+01
1.2119E+03	1.9653E+01
1.2124E+03	1.1959E+01
1.2129E+03	4.0638E+00
1.2133E+03	8.5504E+00
1.2138E+03	1.9646E+01
1.2143E+03	2.5060E+01
1.2148E+03	2.1957E+01
1.2153E+03	2.0097E+01
1.2158E+03	1.9700E+01
1.2162E+03	2.0643E+01
1.2167E+03	2.4400E+01
1.2172E+03	2.7683E+01
1.2177E+03	2.7171E+01
1.2182E+03	2.4310E+01
1.2186E+03	2.2029E+01
1.2191E+03	2.0211E+01
1.2196E+03	2.0303E+01
1.2201E+03	2.3249E+01
1.2206E+03	2.5117E+01
1.2211E+03	1.9125E+01
1.2215E+03	1.3264E+01
1.2220E+03	1.7604E+01
1.2225E+03	2.7065E+01
1.2230E+03	2.9541E+01
1.2235E+03	2.3055E+01
1.2239E+03	1.9707E+01
1.2244E+03	2.0449E+01
1.2249E+03	2.0801E+01
1.2254E+03	1.5568E+01
1.2259E+03	9.9222E+00
1.2264E+03	7.0072E+00
1.2268E+03	7.4328E+00
1.2273E+03	1.2503E+01
1.2278E+03	2.3578E+01
1.2283E+03	2.9001E+01
1.2288E+03	2.7719E+01
1.2293E+03	2.5016E+01
1.2297E+03	2.2889E+01
1.2302E+03	2.3037E+01
1.2307E+03	2.9451E+01
1.2312E+03	3.8461E+01
1.2317E+03	4.1509E+01
1.2321E+03	3.8152E+01
1.2326E+03	3.4326E+01
1.2331E+03	3.0456E+01
1.2336E+03	2.8075E+01
1.2341E+03	2.8616E+01
1.2346E+03	3.0699E+01
1.2350E+03	3.4223E+01
1.2355E+03	3.8286E+01
1.2360E+03	4.1535E+01
1.2365E+03	4.3910E+01
1.2370E+03	4.5861E+01
1.2374E+03	4.7565E+01
1.2379E+03	4.7168E+01
1.2384E+03	4.0045E+01
1.2389E+03	3.3744E+01
1.2394E+03	3.2576E+01
1.2399E+03	3.5161E+01
1.2403E+03	4.1091E+01
1.2408E+03	4.9741E+01
1.2413E+03	5.4261E+01
1.2418E+03	5.4068E+01
1.2423E+03	5.3318E+01
1.2428E+03	5.4107E+01
1.2432E+03	5.5556E+01
1.2437E+03	5.6339E+01
1.2442E+03	5.8225E+01
1.2447E+03	6.6360E+01
1.2452E+03	7.8711E+01
1.2456E+03	8.3072E+01
1.2461E+03	7.8603E+01
1.2466E+03	7.2916E+01
1.2471E+03	6.5643E+01
1.2476E+03	6.3683E+01
1.2481E+03	7.1188E+01
1.2485E+03	8.1510E+01
1.2490E+03	8.3468E+01
1.2495E+03	7.9659E+01
1.2500E+03	7.9262E+01
1.2505E+03	8.2679E+01
1.2509E+03	8.4173E+01
1.2514E+03	7.6463E+01
1.2519E+03	7.4074E+01
1.2524E+03	8.2356E+01
1.2529E+03	9.2584E+01
1.2534E+03	9.0626E+01
1.2538E+03	8.2375E+01
1.2543E+03	8.1526E+01
1.2548E+03	8.8433E+01
1.2553E+03	9.5822E+01
1.2558E+03	1.0436E+02
1.2563E+03	1.0801E+02
1.2567E+03	1.0448E+02
1.2572E+03	9.9212E+01
1.2577E+03	9.7524E+01
1.2582E+03	9.9036E+01
1.2587E+03	1.0573E+02
1.2591E+03	1.1623E+02
1.2596E+03	1.2074E+02
1.2601E+03	1.1580E+02
1.2606E+03	1.1121E+02
1.2611E+03	1.0798E+02
1.2616E+03	1.0694E+02
1.2620E+03	1.1143E+02
1.2625E+03	1.1673E+02
1.2630E+03	1.1645E+02
1.2635E+03	1.1172E+02
1.2640E+03	1.0963E+02
1.2644E+03	1.1098E+02
1.2649E+03	1.1320E+02
1.2654E+03	1.1623E+02
1.2659E+03	1.1802E+02
1.2664E+03	1.1436E+02
1.2669E+03	1.1080E+02
1.2673E+03	1.1375E+02
1.2678E+03	1.2062E+02
1.2683E+03	1.2337E+02
1.2688E+03	1.2193E+02
1.2693E+03	1.1639E+02
1.2698E+03	1.0658E+02
1.2702E+03	9.8640E+01
1.2707E+03	9.7359E+01
1.2712E+03	9.9111E+01
1.2717E+03	1.0370E+02
1.2722E+03	1.0878E+02
1.2726E+03	1.1030E+02
1.2731E+03	1.0854E+02
1.2736E+03	1.0765E+02
1.2741E+03	1.0784E+02
1.2746E+03	1.0686E+02
1.2751E+03	1.0298E+02
1.2755E+03	9.7972E+01
1.2760E+03	9.1883E+01
1.2765E+03	8.5747E+01
1.2770E+03	8.0370E+01
1.2775E+03	7.6115E+01
1.2779E+03	7.5171E+01
1.2784E+03	7.7139E+01
1.2789E+03	7.8251E+01
1.2794E+03	7.5624E+01
1.2799E+03	7.4157E+01
1.2804E+03	7.6548E+01
1.2808E+03	7.6760E+01
1.2813E+03	6.3826E+01
1.2818E+03	4.5668E+01
1.2823E+03	4.0106E+01
1.2828E+03	4.5055E+01
1.2832E+03	4.8342E+01
1.2837E+03	4.5390E+01
1.2842E+03	4.3586E+01
1.2847E+03	4.3751E+01
1.2852E+03	4.4138E+01
1.2857E+03	4.3841E+01
1.2861E+03	4.2326E+01
1.2866E+03	3.7490E+01
1.2871E+03	3.1023E+01
1.2876E+03	2.8168E+01
1.2881E+03	3.1019E+01
1.2886E+03	2.9638E+01
1.2890E+03	2.3220E+01
1.2895E+03	1.6427E+01
1.2900E+03	1.1118E+01
1.2905E+03	8.5765E+00
1.2910E+03	1.2707E+01
1.2914E+03	1.8967E+01
1.2919E+03	1.9471E+01
1.2924E+03	1.3787E+01
1.2929E+03	9.9177E+00
1.2934E+03	7.9629E+00
1.2939E+03	6.3519E+00
1.2943E+03	4.2211E+00
1.2948E+03	2.1028E+00
1.2953E+03	1.0907E+00
1.2958E+03	2.8878E+00
1.2963E+03	5.0967E-01
1.2967E+03	7.7678E+00
1.2972E+03	8.8287E+00
1.2977E+03	4.9536E+00
1.2982E+03	1.7937E+00
1.2987E+03	2.4130E+00
1.2992E+03	3.0093E+00
1.2996E+03	1.1884E+00
1.3001E+03	1.3326E+00
1.3006E+03	5.1672E+00
1.3011E+03	1.0149E+01
1.3016E+03	1.0031E+01
1.3021E+03	6.5050E+00
1.3025E+03	3.1127E+00
1.3030E+03	0.0000E+00
##END=	
