206.000000 0.000000
207.000000 6.189000
208.000000 14.234000
209.000000 23.819000
210.000000 32.388000
211.000000 32.227001
212.000000 30.114000
213.000000 34.451000
214.000000 44.129002
215.000000 51.319000
216.000000 47.318001
217.000000 35.352001
218.000000 27.944000
219.000000 19.391001
220.000000 11.263000
221.000000 5.036000
222.000000 0.503000
223.000000 1.607000
224.000000 2.671000
225.000000 1.789000
226.000000 0.269000
227.000000 4.190000
228.000000 13.326000
229.000000 22.490000
230.000000 33.319000
231.000000 44.143002
232.000000 56.319000
233.000000 69.237000
234.000000 83.557999
235.000000 101.593002
236.000000 119.666000
237.000000 140.095001
238.000000 160.835999
239.000000 180.725998
240.000000 199.869003
241.000000 218.731003
242.000000 236.194000
243.000000 253.643997
244.000000 272.806000
245.000000 292.346985
246.000000 311.868011
247.000000 331.371002
248.000000 350.506012
249.000000 366.149994
250.000000 381.769012
251.000000 396.126007
252.000000 409.997986
253.000000 422.585999
254.000000 433.015015
255.000000 443.421997
256.000000 454.229004
257.000000 465.013000
258.000000 473.544006
259.000000 480.889008
260.000000 488.227997
261.000000 495.822998
262.000000 503.610992
263.000000 506.729004
264.000000 509.701996
265.000000 512.981995
266.000000 516.505005
267.000000 520.252014
268.000000 524.283020
269.000000 529.083984
270.000000 531.429993
271.000000 533.263000
272.000000 536.026978
273.000000 539.294983
274.000000 542.166016
275.000000 542.171997
276.000000 541.757996
277.000000 543.049011
278.000000 544.643005
279.000000 543.656982
280.000000 540.085999
281.000000 536.278015
282.000000 531.747009
283.000000 527.171997
284.000000 518.736023
285.000000 509.390015
286.000000 497.582001
287.000000 483.057007
288.000000 467.802002
289.000000 448.065002
290.000000 428.265991
291.000000 408.108002
292.000000 387.837006
293.000000 367.147003
294.000000 345.968994
295.000000 324.804993
296.000000 303.954987
297.000000 283.089996
298.000000 262.878998
299.000000 242.822998
300.000000 223.490005
301.000000 205.084000
302.000000 187.167999
303.000000 173.041000
304.000000 158.910995
305.000000 143.423004
306.000000 127.555000
307.000000 113.033997
308.000000 100.154999
309.000000 87.737999
310.000000 78.703003
311.000000 69.666000
312.000000 63.349998
313.000000 57.771999
314.000000 51.754002
315.000000 43.313999
316.000000 35.400002
317.000000 31.419001
318.000000 27.309000
319.000000 22.364000
320.000000 17.099001
321.000000 12.978000
322.000000 10.059000
323.000000 7.226000
324.000000 5.331000
325.000000 3.329000
326.000000 1.618000
327.000000 0.115000
328.000000 0.813000
329.000000 0.595000
330.000000 1.110000
331.000000 3.752000
332.000000 6.468000
333.000000 5.673000
334.000000 4.346000
335.000000 4.124000
336.000000 4.690000
337.000000 4.619000
338.000000 2.879000
339.000000 1.092000
340.000000 2.103000
341.000000 3.236000
342.000000 3.560000
343.000000 3.410000
344.000000 2.717000
345.000000 0.850000
346.000000 1.007000
347.000000 2.427000
348.000000 3.840000
349.000000 3.435000
350.000000 2.235000
351.000000 1.363000
352.000000 1.014000
353.000000 1.015000
354.000000 4.988000
355.000000 8.954000
356.000000 8.875000
357.000000 7.624000
358.000000 7.592000
359.000000 8.931000
360.000000 10.045000
361.000000 10.069000
362.000000 10.088000
363.000000 11.604000
364.000000 13.348000
365.000000 13.616000
366.000000 12.742000
367.000000 12.436000
368.000000 13.725000
369.000000 15.008000
370.000000 15.865000
371.000000 16.698000
372.000000 18.686001
373.000000 21.246000
374.000000 22.500999
375.000000 21.559000
376.000000 20.742001
377.000000 21.521999
378.000000 22.290001
379.000000 22.707001
380.000000 23.018999
381.000000 23.326000
382.000000 23.625999
383.000000 24.350000
384.000000 26.820000
385.000000 29.287001
386.000000 29.768000
387.000000 30.042999
388.000000 30.044001
389.000000 29.874001
390.000000 30.132999
391.000000 31.267000
392.000000 32.437000
393.000000 34.439999
394.000000 36.441002
395.000000 38.108002
396.000000 39.666000
397.000000 41.014999
398.000000 42.130001
399.000000 43.826000
400.000000 48.002998
401.000000 52.178001
402.000000 53.166000
403.000000 53.828999
404.000000 56.966000
405.000000 61.573002
406.000000 64.345001
407.000000 63.681000
408.000000 63.075001
409.000000 63.283001
410.000000 63.488998
411.000000 61.603001
412.000000 59.167000
413.000000 54.911999
414.000000 48.952000
415.000000 43.624001
416.000000 40.292999
417.000000 36.959999
418.000000 33.195999
419.000000 29.415001
420.000000 27.155001
421.000000 25.565001
422.000000 24.150000
423.000000 22.938999
424.000000 21.615000
425.000000 19.888000
426.000000 18.134001
427.000000 16.738001
428.000000 15.381000
429.000000 14.836000
430.000000 14.800000
431.000000 14.763000
432.000000 14.726000
433.000000 14.780000
434.000000 15.665000
435.000000 16.577000
436.000000 18.219000
437.000000 20.030001
438.000000 21.823000
439.000000 23.451000
440.000000 25.155001
441.000000 27.589001
442.000000 30.204000
443.000000 33.608002
444.000000 36.898998
445.000000 38.113998
446.000000 38.838001
447.000000 40.519001
448.000000 42.983002
449.000000 45.473999
450.000000 48.256001
451.000000 51.030998
452.000000 53.830002
453.000000 56.710999
454.000000 59.287998
455.000000 61.756001
456.000000 65.763000
457.000000 71.335999
458.000000 77.115997
459.000000 83.565002
460.000000 90.009003
461.000000 96.891998
462.000000 103.793999
463.000000 111.699997
464.000000 119.949997
465.000000 129.065994
466.000000 139.085999
467.000000 149.759995
468.000000 162.462997
469.000000 175.162994
470.000000 188.746994
471.000000 202.339005
472.000000 218.296997
473.000000 235.050995
474.000000 251.589996
475.000000 267.924011
476.000000 283.208008
477.000000 295.552002
478.000000 307.798004
479.000000 314.446014
480.000000 321.135010
481.000000 317.015015
482.000000 309.903015
483.000000 301.144012
484.000000 290.984985
485.000000 279.566986
486.000000 265.320007
487.000000 251.261002
488.000000 238.957001
489.000000 226.671997
490.000000 220.341003
491.000000 215.231995
492.000000 213.076996
493.000000 212.888000
494.000000 216.843994
495.000000 228.188995
496.000000 240.591995
497.000000 260.028015
498.000000 279.502991
499.000000 311.522003
500.000000 344.921997
501.000000 385.492004
502.000000 429.645996
503.000000 476.983002
504.000000 528.328979
505.000000 577.794983
506.000000 620.486023
507.000000 663.145020
508.000000 679.703979
509.000000 695.872986
510.000000 685.742004
511.000000 667.257996
512.000000 635.245972
513.000000 591.500000
514.000000 545.211975
515.000000 493.325989
516.000000 441.630005
517.000000 391.914001
518.000000 342.171997
519.000000 302.595001
520.000000 264.527008
521.000000 230.526993
522.000000 198.712997
523.000000 170.591995
524.000000 147.332993
525.000000 125.706001
526.000000 110.080002
527.000000 94.432999
528.000000 82.364998
529.000000 70.292000
530.000000 59.257999
531.000000 48.505001
532.000000 41.088001
533.000000 36.185001
534.000000 31.104000
535.000000 25.719999
536.000000 20.523001
537.000000 16.478001
538.000000 12.429000
539.000000 10.065000
540.000000 7.810000
541.000000 5.550000
542.000000 3.293000
543.000000 2.210000
544.000000 2.217000
545.000000 2.368000
546.000000 2.835000
547.000000 3.113000
548.000000 1.772000
549.000000 0.436000
550.000000 2.783000
551.000000 5.524000
552.000000 6.681000
553.000000 7.157000
554.000000 9.436000
555.000000 13.537000
556.000000 17.358000
557.000000 20.528000
558.000000 23.868999
559.000000 28.855000
560.000000 33.842999
561.000000 38.018002
562.000000 42.098000
563.000000 47.759998
564.000000 54.097000
565.000000 59.056999
566.000000 62.662998
567.000000 65.700996
568.000000 67.475998
569.000000 68.724998
570.000000 65.935997
571.000000 63.141998
572.000000 58.233002
573.000000 53.140999
574.000000 47.040001
575.000000 40.568001
576.000000 35.817001
577.000000 32.528999
578.000000 28.910000
579.000000 24.691000
580.000000 20.617001
581.000000 17.301001
582.000000 13.981000
583.000000 12.444000
584.000000 10.947000
585.000000 8.359000
586.000000 5.470000
587.000000 4.241000
588.000000 4.087000
589.000000 3.347000
590.000000 1.804000
591.000000 0.805000
592.000000 1.539000
593.000000 2.130000
594.000000 0.556000
595.000000 1.026000
596.000000 1.408000
597.000000 1.632000
598.000000 1.865000
599.000000 2.108000
600.000000 1.640000
601.000000 0.523000
602.000000 0.114000
603.000000 0.160000
604.000000 0.523000
605.000000 1.278000
606.000000 2.040000
607.000000 1.436000
608.000000 0.836000
609.000000 0.999000
610.000000 1.307000
611.000000 0.700000
612.000000 0.392000
613.000000 1.261000
614.000000 1.878000
615.000000 2.195000
616.000000 1.866000
617.000000 1.728000
618.000000 2.795000
619.000000 3.884000
620.000000 4.092000
621.000000 4.300000
622.000000 4.512000
623.000000 4.726000
624.000000 5.574000
625.000000 6.793000
626.000000 7.830000
627.000000 8.669000
628.000000 9.671000
629.000000 10.989000
630.000000 12.141000
631.000000 12.473000
632.000000 12.793000
633.000000 14.519000
634.000000 16.256001
635.000000 17.197001
636.000000 17.974001
637.000000 18.752001
638.000000 19.528999
639.000000 20.306999
640.000000 21.080999
641.000000 21.607000
642.000000 21.770000
643.000000 21.927999
644.000000 22.080000
645.000000 22.228001
646.000000 23.177000
647.000000 24.090000
648.000000 23.264000
649.000000 22.172001
650.000000 22.024000
651.000000 22.158001
652.000000 21.718000
653.000000 20.905001
654.000000 20.525999
655.000000 20.653999
656.000000 20.738001
657.000000 20.764000
658.000000 20.565001
659.000000 18.877001
660.000000 17.238001
661.000000 16.979000
662.000000 16.760000
663.000000 18.198000
664.000000 19.885000
665.000000 19.879000
666.000000 19.257000
667.000000 17.827999
668.000000 15.819000
669.000000 15.485000
670.000000 17.208000
671.000000 18.062000
672.000000 16.974001
673.000000 16.042000
674.000000 15.883000
675.000000 15.705000
676.000000 15.073000
677.000000 14.437000
678.000000 14.637000
679.000000 14.931000
680.000000 15.223000
681.000000 15.511000
682.000000 15.207000
683.000000 14.553000
684.000000 14.593000
685.000000 15.340000
686.000000 15.913000
687.000000 16.174000
688.000000 16.084000
689.000000 14.897000
690.000000 13.791000
691.000000 13.516000
692.000000 13.233000
693.000000 14.295000
694.000000 15.321000
695.000000 15.109000
696.000000 14.680000
697.000000 14.224000
698.000000 13.708000
699.000000 13.427000
700.000000 13.367000
701.000000 12.883000
702.000000 11.832000
703.000000 11.187000
704.000000 11.431000
705.000000 11.444000
706.000000 10.731000
707.000000 9.908000
708.000000 8.279000
709.000000 6.726000
710.000000 6.629000
711.000000 6.537000
712.000000 6.849000
713.000000 7.189000
714.000000 6.415000
715.000000 5.351000
716.000000 4.044000
717.000000 2.583000
718.000000 1.607000
719.000000 1.114000
720.000000 0.869000
721.000000 0.936000
722.000000 1.019000
723.000000 1.107000
724.000000 1.001000
725.000000 0.129000
726.000000 0.704000
727.000000 1.503000
728.000000 2.294000
729.000000 2.615000
730.000000 2.924000
731.000000 4.056000
732.000000 5.296000
733.000000 6.515000
734.000000 7.720000
735.000000 8.296000
736.000000 8.539000
737.000000 8.255000
738.000000 7.541000
739.000000 7.464000
740.000000 8.176000
741.000000 8.554000
742.000000 8.307000
743.000000 8.180000
744.000000 8.409000
745.000000 8.634000
746.000000 8.857000
747.000000 8.988000
748.000000 7.305000
749.000000 5.623000
750.000000 6.211000
751.000000 6.917000
752.000000 5.990000
753.000000 4.784000
754.000000 4.295000
755.000000 4.027000
756.000000 2.804000
757.000000 1.108000
758.000000 0.232000
759.000000 0.037000
760.000000 0.538000
761.000000 1.286000
762.000000 2.034000
763.000000 2.785000
764.000000 3.542000
765.000000 4.311000
766.000000 5.193000
767.000000 6.448000
768.000000 7.577000
769.000000 7.865000
770.000000 8.192000
771.000000 9.455000
772.000000 10.736000
773.000000 10.644000
774.000000 10.492000
775.000000 10.754000
776.000000 11.073000
777.000000 11.011000
778.000000 10.855000
779.000000 12.411000
780.000000 14.666000
781.000000 15.717000
782.000000 16.058001
783.000000 17.454000
784.000000 19.712999
785.000000 22.431000
786.000000 25.667000
787.000000 28.153999
788.000000 29.486000
789.000000 30.975000
790.000000 32.792999
791.000000 34.612999
792.000000 36.438999
793.000000 38.023998
794.000000 38.410000
795.000000 38.703999
796.000000 38.132000
797.000000 37.549000
798.000000 36.493999
799.000000 35.445000
800.000000 33.937000
801.000000 32.417999
802.000000 29.612000
803.000000 26.649000
804.000000 25.282000
805.000000 24.261999
806.000000 22.146000
807.000000 19.673000
808.000000 17.871000
809.000000 16.377001
810.000000 14.892000
811.000000 13.410000
812.000000 11.387000
813.000000 8.940000
814.000000 7.464000
815.000000 6.960000
816.000000 5.816000
817.000000 3.853000
818.000000 2.079000
819.000000 0.615000
820.000000 0.532000
821.000000 1.013000
822.000000 1.743000
823.000000 3.187000
824.000000 4.329000
825.000000 4.332000
826.000000 4.209000
827.000000 3.267000
828.000000 2.327000
829.000000 1.374000
830.000000 0.448000
831.000000 0.448000
832.000000 0.448000
833.000000 0.014000
834.000000 0.462000
835.000000 0.429000
836.000000 0.346000
837.000000 1.122000
838.000000 1.997000
839.000000 2.832000
840.000000 3.624000
841.000000 4.376000
842.000000 5.090000
843.000000 5.791000
844.000000 6.493000
845.000000 6.527000
846.000000 6.304000
847.000000 6.738000
848.000000 7.487000
849.000000 8.529000
850.000000 9.778000
851.000000 10.203000
852.000000 10.004000
853.000000 10.324000
854.000000 11.102000
855.000000 12.120000
856.000000 13.457000
857.000000 14.634000
858.000000 15.522000
859.000000 16.186001
860.000000 16.607000
861.000000 16.885000
862.000000 16.872000
863.000000 17.372000
864.000000 18.872999
865.000000 20.266001
866.000000 21.337000
867.000000 22.542999
868.000000 24.104000
869.000000 25.664000
870.000000 27.218000
871.000000 28.333000
872.000000 27.891001
873.000000 27.712000
874.000000 28.724001
875.000000 29.955999
876.000000 32.417000
877.000000 34.466999
878.000000 33.924000
879.000000 33.526001
880.000000 34.439999
881.000000 35.334999
882.000000 36.214001
883.000000 37.151001
884.000000 39.020000
885.000000 40.842999
886.000000 41.691002
887.000000 42.511002
888.000000 42.821999
889.000000 43.119999
890.000000 45.372002
891.000000 47.638000
892.000000 47.973000
893.000000 48.237000
894.000000 48.007999
895.000000 47.730000
896.000000 49.294998
897.000000 50.986000
898.000000 51.745998
899.000000 52.397999
900.000000 53.938999
901.000000 55.571999
902.000000 56.726002
903.000000 57.778000
904.000000 58.799000
905.000000 59.791000
906.000000 60.327999
907.000000 60.775002
908.000000 61.591000
909.000000 62.421001
910.000000 62.766998
911.000000 62.973000
912.000000 64.374001
913.000000 65.959000
914.000000 67.079002
915.000000 68.061996
916.000000 67.752998
917.000000 67.119003
918.000000 67.633003
919.000000 68.342003
920.000000 69.004997
921.000000 69.612999
922.000000 70.973999
923.000000 72.473000
924.000000 72.712997
925.000000 72.626999
926.000000 72.502998
927.000000 72.348000
928.000000 72.569000
929.000000 72.862999
930.000000 72.725998
931.000000 72.455002
932.000000 72.957001
933.000000 73.621002
934.000000 74.268997
935.000000 74.918999
936.000000 74.745003
937.000000 74.392998
938.000000 75.705002
939.000000 77.329002
940.000000 77.664001
941.000000 77.737000
942.000000 78.213997
943.000000 78.732002
944.000000 80.502998
945.000000 82.459999
946.000000 83.504997
947.000000 84.362000
948.000000 84.717003
949.000000 84.934998
950.000000 85.071999
951.000000 85.142998
952.000000 86.552002
953.000000 88.061996
954.000000 88.594002
955.000000 88.989998
956.000000 89.800003
957.000000 90.575996
958.000000 90.319000
959.000000 89.934998
960.000000 90.444000
961.000000 90.893997
962.000000 92.261002
963.000000 93.555000
964.000000 95.264000
965.000000 96.813004
966.000000 96.318001
967.000000 95.841003
968.000000 97.181000
969.000000 98.462997
970.000000 100.112000
971.000000 101.608002
972.000000 102.556000
973.000000 103.472000
974.000000 104.732002
975.000000 105.728996
976.000000 105.772003
977.000000 106.093002
978.000000 107.962997
979.000000 109.617996
980.000000 110.764999
981.000000 111.924004
982.000000 113.359001
983.000000 115.251999
984.000000 118.505997
985.000000 120.706001
986.000000 120.689003
987.000000 121.254997
988.000000 123.041000
989.000000 123.745003
990.000000 122.754997
991.000000 122.708000
992.000000 124.035004
993.000000 125.709999
994.000000 127.822998
995.000000 129.315994
996.000000 130.169006
997.000000 130.352997
998.000000 129.940002
999.000000 129.994995
1000.000000 130.360001
1001.000000 131.533997
1002.000000 133.167999
1003.000000 132.996994
1004.000000 131.904999
1005.000000 132.570007
1006.000000 133.964996
1007.000000 133.417007
1008.000000 132.169006
1009.000000 134.520996
1010.000000 137.822998
1011.000000 139.389999
1012.000000 140.584000
1013.000000 141.296005
1014.000000 141.921997
1015.000000 145.863998
1016.000000 150.078995
1017.000000 154.860992
1018.000000 159.727005
1019.000000 164.255997
1020.000000 168.921997
1021.000000 173.300995
1022.000000 178.022995
1023.000000 183.944000
1024.000000 190.796005
1025.000000 200.108994
1026.000000 209.639008
1027.000000 219.089996
1028.000000 230.419998
1029.000000 244.931000
1030.000000 259.852997
1031.000000 275.016998
1032.000000 291.223999
1033.000000 308.542999
1034.000000 326.497009
1035.000000 344.937012
1036.000000 364.346985
1037.000000 384.657013
1038.000000 407.259003
1039.000000 431.420013
1040.000000 455.947998
1041.000000 480.825989
1042.000000 504.678009
1043.000000 528.206970
1044.000000 552.497986
1045.000000 576.903992
1046.000000 603.481995
1047.000000 630.106995
1048.000000 654.793030
1049.000000 678.854004
1050.000000 704.390991
1051.000000 729.146973
1052.000000 752.651001
1053.000000 775.607971
1054.000000 799.828003
1055.000000 823.638000
1056.000000 848.715027
1057.000000 871.869995
1058.000000 892.442017
1059.000000 911.210999
1060.000000 927.997986
1061.000000 944.914978
1062.000000 962.620972
1063.000000 979.799011
1064.000000 996.414978
1065.000000 1012.593018
1066.000000 1028.182983
1067.000000 1040.435059
1068.000000 1051.037964
1069.000000 1061.720947
1070.000000 1072.339966
1071.000000 1083.671021
1072.000000 1094.987061
1073.000000 1106.595947
1074.000000 1118.005005
1075.000000 1122.489990
1076.000000 1127.395996
1077.000000 1138.302979
1078.000000 1147.928955
1079.000000 1152.218018
1080.000000 1155.223022
1081.000000 1154.959961
1082.000000 1154.510010
1083.000000 1153.869019
1084.000000 1151.437988
1085.000000 1146.767944
1086.000000 1144.406006
1087.000000 1144.089966
1088.000000 1137.427979
1089.000000 1126.787964
1090.000000 1117.086060
1091.000000 1107.659058
1092.000000 1095.529053
1093.000000 1082.603027
1094.000000 1070.432983
1095.000000 1058.186035
1096.000000 1042.634033
1097.000000 1026.545044
1098.000000 1006.905029
1099.000000 987.750977
1100.000000 971.403015
1101.000000 953.223022
1102.000000 930.731018
1103.000000 909.270996
1104.000000 889.564026
1105.000000 867.104004
1106.000000 841.737000
1107.000000 816.174988
1108.000000 790.421997
1109.000000 766.304993
1110.000000 742.828003
1111.000000 717.062988
1112.000000 690.552002
1113.000000 664.330017
1114.000000 637.989990
1115.000000 613.030029
1116.000000 587.155029
1117.000000 555.478027
1118.000000 524.572021
1119.000000 496.786987
1120.000000 467.772003
1121.000000 436.445007
1122.000000 407.260010
1123.000000 380.882996
1124.000000 353.183990
1125.000000 324.385010
1126.000000 297.196014
1127.000000 270.738007
1128.000000 247.835007
1129.000000 225.828003
1130.000000 200.335999
1131.000000 174.317001
1132.000000 151.817993
1133.000000 128.770996
1134.000000 102.783997
1135.000000 77.903000
1136.000000 56.845001
1137.000000 35.981998
1138.000000 15.593000
1139.000000 5.265000
1140.000000 26.625000
1141.000000 44.997002
1142.000000 61.504002
1143.000000 77.108002
1144.000000 92.540001
1145.000000 104.147003
1146.000000 115.294998
1147.000000 126.706001
1148.000000 138.009995
1149.000000 146.203003
1150.000000 153.944000
1151.000000 159.483002
1152.000000 165.104996
1153.000000 170.651993
1154.000000 173.612000
1155.000000 173.794998
1156.000000 173.250000
1157.000000 172.343994
1158.000000 169.281998
1159.000000 165.641998
1160.000000 159.875000
1161.000000 153.987000
1162.000000 146.169006
1163.000000 137.776993
1164.000000 124.958000
1165.000000 111.696999
1166.000000 97.028999
1167.000000 81.675003
1168.000000 65.259003
1169.000000 51.959000
1170.000000 41.195999
1171.000000 30.211000
1172.000000 19.197001
1173.000000 2.455000
1174.000000 15.364000
1175.000000 27.351999
1176.000000 39.750999
1177.000000 57.323002
1178.000000 74.390999
1179.000000 90.189003
1180.000000 105.904999
1181.000000 121.545998
1182.000000 137.701004
1183.000000 154.270996
1184.000000 168.906006
1185.000000 182.632996
1186.000000 189.505997
1187.000000 194.996994
1188.000000 204.718002
1189.000000 213.972000
1190.000000 220.352005
1191.000000 226.822006
1192.000000 233.639008
1193.000000 241.567001
1194.000000 250.942001
1195.000000 256.437012
1196.000000 259.226990
1197.000000 256.700989
1198.000000 252.311996
1199.000000 257.157013
1200.000000 262.863007
1201.000000 266.480988
1202.000000 268.778015
1203.000000 266.328003
1204.000000 264.834991
1205.000000 265.010986
1206.000000 271.470001
1207.000000 283.516998
1208.000000 291.040009
1209.000000 296.493988
1210.000000 301.459015
1211.000000 306.367004
1212.000000 316.665009
1213.000000 329.605011
1214.000000 355.069000
1215.000000 381.817993
1216.000000 411.097992
1217.000000 440.069000
1218.000000 468.738007
1219.000000 503.944000
1220.000000 542.273987
1221.000000 590.117981
1222.000000 639.833008
1223.000000 708.500977
1224.000000 775.026001
1225.000000 832.033997
1226.000000 900.000977
1227.000000 988.546997
1228.000000 1081.290039
1229.000000 1177.875000
1230.000000 1282.385986
1231.000000 1390.253052
1232.000000 1517.954956
1233.000000 1649.005981
1234.000000 1791.928955
1235.000000 1936.954956
1236.000000 2090.312012
1237.000000 2250.981934
1238.000000 2422.861084
1239.000000 2597.156006
1240.000000 2773.133057
1241.000000 2955.114990
1242.000000 3138.437988
1243.000000 3328.819092
1244.000000 3517.666016
1245.000000 3695.884033
1246.000000 3875.946045
1247.000000 4061.595947
1248.000000 4248.734863
1249.000000 4437.770020
1250.000000 4600.578125
1251.000000 4749.921875
1252.000000 4907.601074
1253.000000 5065.893066
1254.000000 5212.728027
1255.000000 5352.586914
1256.000000 5469.876953
1257.000000 5589.037109
1258.000000 5710.965820
1259.000000 5817.190918
1260.000000 5913.203125
1261.000000 6004.420898
1262.000000 6094.615234
1263.000000 6169.479004
1264.000000 6241.873047
1265.000000 6302.545898
1266.000000 6362.855957
1267.000000 6422.174805
1268.000000 6465.297852
1269.000000 6496.520020
1270.000000 6511.709961
1271.000000 6522.839844
1272.000000 6533.815918
1273.000000 6544.799805
1274.000000 6550.358887
1275.000000 6561.977051
1276.000000 6583.076172
1277.000000 6573.937988
1278.000000 6541.662109
1279.000000 6533.269043
1280.000000 6532.767090
1281.000000 6494.897949
1282.000000 6456.036133
1283.000000 6416.069824
1284.000000 6367.545898
1285.000000 6304.612793
1286.000000 6250.643066
1287.000000 6203.003906
1288.000000 6138.664063
1289.000000 6069.969238
1290.000000 5991.873047
1291.000000 5910.479004
1292.000000 5816.349121
1293.000000 5714.333984
1294.000000 5601.354004
1295.000000 5485.946777
1296.000000 5369.169922
1297.000000 5251.077148
1298.000000 5132.393066
1299.000000 5006.312012
1300.000000 4878.833008
1301.000000 4747.386230
1302.000000 4619.806152
1303.000000 4496.330078
1304.000000 4377.303223
1305.000000 4260.229004
1306.000000 4134.416992
1307.000000 4009.909912
1308.000000 3897.571045
1309.000000 3778.492920
1310.000000 3647.267090
1311.000000 3530.824951
1312.000000 3425.120117
1313.000000 3315.914063
1314.000000 3206.600098
1315.000000 3122.639893
1316.000000 3034.335938
1317.000000 2932.607910
1318.000000 2837.434082
1319.000000 2749.512939
1320.000000 2665.267090
1321.000000 2582.697021
1322.000000 2492.907959
1323.000000 2407.721924
1324.000000 2349.871094
1325.000000 2288.254883
1326.000000 2220.560059
1327.000000 2156.474121
1328.000000 2094.733887
1329.000000 2067.179932
1330.000000 2043.624023
1331.000000 1993.150024
1332.000000 1949.938965
1333.000000 1922.473999
1334.000000 1901.405029
1335.000000 1885.663940
1336.000000 1850.135986
1337.000000 1810.040039
1338.000000 1808.505981
1339.000000 1800.737061
1340.000000 1774.624023
1341.000000 1756.879028
1342.000000 1747.657959
1343.000000 1731.958008
1344.000000 1714.071045
1345.000000 1715.303955
1346.000000 1723.442993
1347.000000 1754.063965
1348.000000 1774.933960
1349.000000 1784.418945
1350.000000 1793.386963
1351.000000 1802.296997
1352.000000 1796.817017
1353.000000 1794.836060
1354.000000 1809.162964
1355.000000 1819.998047
1356.000000 1826.389038
1357.000000 1833.529053
1358.000000 1841.176025
1359.000000 1840.535034
1360.000000 1838.948975
1361.000000 1834.511963
1362.000000 1830.175049
1363.000000 1825.884033
1364.000000 1827.964966
1365.000000 1833.050049
1366.000000 1810.192017
1367.000000 1787.093018
1368.000000 1767.588013
1369.000000 1748.508057
1370.000000 1729.838989
1371.000000 1714.491943
1372.000000 1700.722046
1373.000000 1684.589966
1374.000000 1665.881958
1375.000000 1637.968018
1376.000000 1625.296021
1377.000000 1628.227051
1378.000000 1610.812988
1379.000000 1587.265015
1380.000000 1571.595947
1381.000000 1548.058960
1382.000000 1503.489014
1383.000000 1483.687012
1384.000000 1484.676025
1385.000000 1457.991943
1386.000000 1427.743042
1387.000000 1424.874023
1388.000000 1421.078979
1389.000000 1415.020996
1390.000000 1401.694946
1391.000000 1383.844971
1392.000000 1376.272949
1393.000000 1367.516968
1394.000000 1327.349976
1395.000000 1291.895020
1396.000000 1262.734009
1397.000000 1249.572021
1398.000000 1243.614990
1399.000000 1229.536987
1400.000000 1212.821045
1401.000000 1188.090942
1402.000000 1168.203979
1403.000000 1152.822998
1404.000000 1158.110962
1405.000000 1167.022949
1406.000000 1152.073975
1407.000000 1148.109009
1408.000000 1164.078979
1409.000000 1174.171997
1410.000000 1180.979004
1411.000000 1170.097046
1412.000000 1161.946045
1413.000000 1171.042969
1414.000000 1191.661011
1415.000000 1224.824951
1416.000000 1235.738037
1417.000000 1240.802979
1418.000000 1263.514038
1419.000000 1279.803955
1420.000000 1282.878052
1421.000000 1309.180054
1422.000000 1349.864014
1423.000000 1362.340942
1424.000000 1379.964966
1425.000000 1428.946045
1426.000000 1470.079956
1427.000000 1502.953979
1428.000000 1525.328003
1429.000000 1546.030029
1430.000000 1580.177979
1431.000000 1614.946045
1432.000000 1650.512939
1433.000000 1674.508057
1434.000000 1692.693970
1435.000000 1710.151978
1436.000000 1736.352051
1437.000000 1787.936035
1438.000000 1816.332031
1439.000000 1825.711060
1440.000000 1834.384033
1441.000000 1845.745972
1442.000000 1872.437988
1443.000000 1883.501953
1444.000000 1875.234009
1445.000000 1878.998047
1446.000000 1887.229980
1447.000000 1903.302002
1448.000000 1909.968018
1449.000000 1899.479980
1450.000000 1881.447998
1451.000000 1859.895996
1452.000000 1836.743042
1453.000000 1819.555054
1454.000000 1817.225952
1455.000000 1801.863037
1456.000000 1777.365967
1457.000000 1729.845947
1458.000000 1681.876953
1459.000000 1641.307007
1460.000000 1604.568970
1461.000000 1571.510986
1462.000000 1528.038940
1463.000000 1481.542969
1464.000000 1426.692017
1465.000000 1383.718994
1466.000000 1354.968994
1467.000000 1313.490967
1468.000000 1268.162964
1469.000000 1216.213989
1470.000000 1157.444946
1471.000000 1088.022949
1472.000000 1035.675049
1473.000000 989.117981
1474.000000 902.169006
1475.000000 823.028992
1476.000000 756.617004
1477.000000 697.156006
1478.000000 641.835999
1479.000000 551.039978
1480.000000 479.046997
1481.000000 443.709015
1482.000000 384.604004
1483.000000 314.092010
1484.000000 265.016998
1485.000000 212.429001
1486.000000 147.229996
1487.000000 106.036003
1488.000000 80.707001
1489.000000 48.229000
1490.000000 19.985001
1491.000000 3.225000
1492.000000 18.343000
1493.000000 25.183001
1494.000000 16.983000
1495.000000 0.473000
1496.000000 22.646000
1497.000000 45.720001
1498.000000 58.498001
1499.000000 27.396000
1500.000000 0.000000
