
203.2693, 0.0000000E+00
203.7514, 45.06250
204.2335, 27.48047
204.7156, 9.097656
205.1978, 15.05469
205.6799, 31.20312
206.1620, 61.86719
206.6441, 72.29688
207.1262, 62.00391
207.6083, 44.36328
208.0905, 17.15234
208.5726, 0.4882810
209.0547, 3.429688
209.5368, 5.4687999E-02
210.0189, 9.820313
210.5010, 25.01953
210.9832, 42.90625
211.4653, 61.59766
211.9474, 83.00781
212.4295, 96.86719
212.9116, 86.89453
213.3937, 83.41406
213.8759, 111.0938
214.3580, 163.4258
214.8401, 210.1211
215.3222, 217.3789
215.8043, 177.1133
216.2864, 158.5352
216.7686, 151.0703
217.2507, 173.3086
217.7328, 259.8711
218.2149, 388.3516
218.6970, 498.7109
219.1791, 533.7031
219.6613, 490.1328
220.1434, 488.5078
220.6255, 567.6523
221.1076, 653.7383
221.5897, 731.7344
222.0718, 801.5781
222.5540, 870.3359
223.0361, 945.6836
223.5182, 1024.262
224.0003, 1065.285
224.4824, 1026.852
224.9645, 994.1523
225.4467, 988.0586
225.9288, 998.1797
226.4109, 1008.109
226.8930, 1009.098
227.3751, 1012.996
227.8572, 1024.781
228.3394, 1040.867
228.8215, 1043.801
229.3036, 1042.969
229.7857, 1036.867
230.2678, 1013.207
230.7499, 992.6133
231.2321, 987.1875
231.7142, 1011.098
232.1963, 1103.520
232.6784, 1155.711
233.1605, 1133.062
233.6426, 1082.043
234.1248, 1040.285
234.6069, 1020.629
235.0890, 1014.801
235.5711, 1012.609
236.0532, 1025.594
236.5353, 1013.359
237.0175, 953.7734
237.4996, 884.2305
237.9817, 827.9609
238.4638, 789.9336
238.9459, 761.1953
239.4280, 733.4648
239.9102, 710.1367
240.3923, 674.5625
240.8744, 616.3008
241.3565, 553.7969
241.8386, 494.7461
242.3207, 437.2031
242.8029, 385.7969
243.2850, 360.9805
243.7671, 365.4336
244.2492, 364.5742
244.7313, 358.0117
245.2134, 345.7617
245.6956, 325.0391
246.1777, 298.2344
246.6598, 270.9180
247.1419, 245.8984
247.6240, 223.6055
248.1061, 208.4844
248.5883, 215.8945
249.0704, 209.3320
249.5525, 168.1797
250.0346, 107.4414
250.5167, 50.59766
250.9988, 8.417969
251.4810, 20.21875
251.9631, 37.89062
252.4452, 41.10938
252.9273, 39.89062
253.4094, 27.40234
253.8915, 16.61719
254.3737, 27.20703
254.8558, 71.00391
255.3379, 120.2930
255.8200, 128.6680
256.3021, 87.23438
256.7842, 38.24219
257.2664, 14.94531
257.7485, 66.26953
258.2306, 116.7227
258.7127, 166.9531
259.1948, 200.1172
259.6769, 186.5586
260.1591, 123.2617
260.6412, 83.74609
261.1233, 102.7852
261.6054, 133.3242
262.0875, 136.9570
262.5696, 114.6289
263.0518, 102.7734
263.5339, 145.4102
264.0160, 228.3711
264.4981, 265.9961
264.9802, 232.6992
265.4623, 177.2578
265.9445, 122.5977
266.4266, 73.28516
266.9087, 48.08984
267.3908, 64.25781
267.8729, 109.5273
268.3550, 166.6602
268.8372, 245.3594
269.3193, 302.1289
269.8014, 292.5820
270.2835, 241.2891
270.7656, 183.5664
271.2477, 109.5938
271.7299, 48.36719
272.2120, 44.92188
272.6941, 101.2188
273.1762, 148.6211
273.6583, 145.1758
274.1404, 114.7461
274.6226, 107.2070
275.1047, 140.9258
275.5868, 168.2656
276.0689, 145.4180
276.5510, 85.71875
277.0331, 46.66016
277.5153, 56.03125
277.9974, 84.99609
278.4795, 84.72656
278.9616, 51.64844
279.4437, 14.90625
279.9258, 27.68359
280.4080, 64.32812
280.8901, 68.04297
281.3722, 29.19922
281.8543, 19.36328
282.3364, 33.37109
282.8185, 8.128906
283.3007, 7.812500
283.7828, 57.85156
284.2649, 124.3477
284.7470, 182.9141
285.2291, 229.9023
285.7112, 263.4258
286.1934, 283.8672
286.6755, 289.3281
287.1576, 265.4805
287.6397, 174.1094
288.1218, 93.16406
288.6039, 68.49219
289.0861, 85.72656
289.5682, 105.3281
290.0503, 106.4688
290.5324, 91.67188
291.0145, 70.76562
291.4966, 19.12891
291.9788, 8.113281
292.4609, 13.67188
292.9430, 58.60156
293.4251, 95.82812
293.9072, 114.3906
294.3893, 121.4375
294.8715, 128.5664
295.3536, 130.5039
295.8357, 143.7773
296.3178, 183.7500
296.7999, 223.0781
297.2820, 245.1445
297.7642, 246.7773
298.2463, 229.9219
298.7284, 192.8984
299.2105, 129.9062
299.6926, 87.13672
300.1747, 77.11719
300.6569, 74.07812
301.1390, 69.12891
301.6211, 64.28906
302.1032, 65.73828
302.5853, 78.03906
303.0674, 99.44922
303.5496, 121.0039
304.0317, 140.3125
304.5138, 163.6094
304.9959, 203.2188
305.4780, 242.3086
305.9601, 258.1562
306.4423, 241.5703
306.9244, 215.0703
307.4065, 211.7148
307.8886, 229.8906
308.3707, 277.4688
308.8528, 420.2695
309.3350, 545.6758
309.8171, 578.1211
310.2992, 514.7305
310.7813, 414.0977
311.2634, 310.7773
311.7455, 207.1953
312.2277, 133.8555
312.7098, 102.5820
313.1919, 85.20703
313.6740, 70.04297
314.1561, 58.82422
314.6382, 48.17969
315.1204, 21.85156
315.6025, 0.6132810
316.0846, 34.84375
316.5667, 142.7695
317.0488, 221.7070
317.5309, 183.7031
318.0131, 92.08203
318.4952, 54.94531
318.9773, 108.9219
319.4594, 176.8438
319.9415, 207.1211
320.4236, 203.8516
320.9058, 182.1328
321.3879, 139.1484
321.8700, 92.30078
322.3521, 68.08984
322.8342, 65.58594
323.3163, 78.81641
323.7985, 111.9844
324.2806, 157.4922
324.7627, 211.5156
325.2448, 273.4062
325.7269, 326.1055
326.2090, 351.7656
326.6912, 347.1172
327.1733, 343.0273
327.6554, 332.2773
328.1375, 328.5430
328.6196, 338.1094
329.1017, 361.0391
329.5839, 395.7578
330.0660, 441.3750
330.5481, 498.2031
331.0302, 566.2656
331.5123, 673.4805
331.9944, 757.6172
332.4766, 801.1719
332.9587, 823.8281
333.4408, 847.0156
333.9229, 877.0625
334.4050, 905.7734
334.8871, 923.6367
335.3693, 939.1133
335.8514, 918.0742
336.3335, 795.2891
336.8156, 697.5586
337.2977, 719.1172
337.7798, 830.2852
338.2620, 924.7773
338.7441, 912.4570
339.2262, 810.5703
339.7083, 756.4531
340.1904, 768.1680
340.6725, 802.2656
341.1547, 872.8164
341.6368, 945.9883
342.1189, 971.6992
342.6010, 924.8828
343.0831, 855.7383
343.5652, 844.4492
344.0474, 900.5156
344.5295, 947.7539
345.0116, 975.5430
345.4937, 980.5938
345.9758, 944.4609
346.4579, 868.8984
346.9401, 818.4531
347.4222, 865.7969
347.9043, 968.8633
348.3864, 1000.195
348.8685, 926.9844
349.3506, 845.5977
349.8328, 843.5938
350.3149, 895.8828
350.7970, 928.2734
351.2791, 909.8555
351.7612, 881.1875
352.2433, 879.0117
352.7255, 897.8867
353.2076, 907.6914
353.6897, 892.1758
354.1718, 861.2734
354.6539, 843.2695
355.1360, 853.7188
355.6182, 842.9219
356.1003, 784.5859
356.5824, 706.0586
357.0645, 635.6016
357.5466, 580.0430
358.0287, 540.9219
358.5109, 521.1406
358.9930, 523.9727
359.4751, 529.3828
359.9572, 558.0234
360.4393, 568.8320
360.9214, 543.5430
361.4036, 486.0039
361.8857, 401.8398
362.3678, 290.7617
362.8499, 166.3984
363.3320, 76.91797
363.8141, 24.75000
364.2963, 8.402344
364.7784, 61.92969
365.2605, 125.3203
365.7426, 144.7617
366.2247, 110.5781
366.7068, 57.89062
367.1890, 20.16406
367.6711, 3.222656
368.1532, 4.500000
368.6353, 35.80859
369.1174, 75.88672
369.5995, 86.25000
370.0817, 79.95703
370.5638, 89.92578
371.0459, 143.4297
371.5280, 212.3203
372.0101, 245.3008
372.4922, 237.0312
372.9744, 231.2266
373.4565, 254.4336
373.9386, 286.0352
374.4207, 293.8438
374.9028, 271.3984
375.3849, 245.0859
375.8671, 218.2461
376.3492, 199.0508
376.8313, 208.6250
377.3134, 253.5781
377.7955, 310.2188
378.2776, 359.5508
378.7598, 400.9180
379.2419, 419.1133
379.7240, 403.8633
380.2061, 374.1211
380.6882, 317.3242
381.1703, 253.2578
381.6525, 239.3125
382.1346, 311.5469
382.6167, 436.8672
383.0988, 515.8281
383.5809, 510.1719
384.0630, 503.6953
384.5452, 491.8086
385.0273, 484.0156
385.5094, 483.4531
385.9915, 493.1914
386.4736, 522.6250
386.9557, 590.7344
387.4379, 701.4375
387.9200, 768.9453
388.4021, 746.9648
388.8842, 734.3242
389.3663, 762.3203
389.8484, 820.4805
390.3306, 894.4141
390.8127, 983.2578
391.2948, 1071.309
391.7769, 1122.852
392.2590, 1130.156
392.7411, 1174.559
393.2233, 1308.504
393.7054, 1460.098
394.1875, 1556.391
394.6696, 1597.359
395.1517, 1637.836
395.6339, 1717.641
396.1160, 1809.629
396.5981, 1871.461
397.0802, 1899.277
397.5623, 1896.234
398.0444, 1850.766
398.5266, 1775.109
399.0087, 1733.520
399.4908, 1747.168
399.9729, 1770.625
400.4550, 1795.395
400.9371, 1816.418
401.4193, 1824.094
401.9014, 1815.070
402.3835, 1796.742
402.8656, 1780.078
403.3477, 1768.750
403.8298, 1747.434
404.3120, 1729.977
404.7941, 1691.164
405.2762, 1600.422
405.7583, 1476.762
406.2404, 1367.824
406.7225, 1305.543
407.2047, 1275.961
407.6868, 1228.164
408.1689, 1142.492
408.6510, 1079.832
409.1331, 1072.832
409.6152, 1077.348
410.0974, 1063.902
410.5795, 1026.578
411.0616, 966.8125
411.5437, 872.1055
412.0258, 751.7344
412.5079, 655.0078
412.9901, 584.4375
413.4722, 540.0039
413.9543, 524.6445
414.4364, 535.7656
414.9185, 578.9531
415.4006, 704.9531
415.8828, 802.4805
416.3649, 755.9180
416.8470, 610.2578
417.3291, 511.0156
417.8112, 514.6875
418.2933, 559.1016
418.7755, 547.7070
419.2576, 453.0781
419.7397, 394.4141
420.2218, 401.4531
420.7039, 426.3633
421.1860, 452.8672
421.6682, 473.5273
422.1503, 464.6641
422.6324, 402.0195
423.1145, 309.5977
423.5966, 272.0430
424.0787, 349.9297
424.5609, 394.3242
425.0430, 372.2852
425.5251, 322.0781
426.0072, 268.1406
426.4893, 216.5664
426.9714, 171.3086
427.4536, 143.9258
427.9357, 129.4062
428.4178, 90.78125
428.8999, 9.375000
429.3820, 49.17188
429.8641, 34.28906
430.3463, 19.46875
430.8284, 63.53516
431.3105, 86.64453
431.7926, 97.68359
432.2747, 100.0469
432.7568, 95.77344
433.2390, 91.86328
433.7211, 89.93359
434.2032, 89.61719
434.6853, 93.72266
435.1674, 103.8984
435.6495, 96.89844
436.1317, 38.96875
436.6138, 7.191406
437.0959, 10.51953
437.5780, 71.89062
438.0601, 120.8242
438.5422, 127.8438
439.0244, 109.9219
439.5065, 112.5391
439.9886, 170.0195
440.4707, 185.1602
440.9528, 120.7070
441.4349, 47.86328
441.9171, 8.339844
442.3992, 3.843750
442.8813, 16.44922
443.3634, 33.68750
443.8455, 57.36719
444.3276, 101.2344
444.8098, 181.4609
445.2919, 236.5195
445.7740, 226.3633
446.2561, 187.2422
446.7382, 151.6484
447.2203, 124.2617
447.7025, 96.07031
448.1846, 46.63672
448.6667, 4.574219
449.1488, 6.988281
449.6309, 49.32422
450.1130, 107.0781
450.5952, 117.3047
451.0773, 86.40234
451.5594, 82.96875
452.0415, 150.2383
452.5236, 192.7188
453.0057, 155.1289
453.4879, 82.50000
453.9700, 40.14062
454.4521, 46.01172
454.9342, 68.89844
455.4163, 66.08203
455.8984, 28.70703
456.3806, 16.01953
456.8627, 68.92578
457.3448, 105.1602
457.8269, 82.39453
458.3090, 30.54297
458.7911, 0.5039060
459.2733, 16.02344
459.7554, 49.32812
460.2375, 57.76562
460.7196, 40.83203
461.2017, 36.80469
461.6838, 56.61328
462.1660, 86.65625
462.6481, 127.4609
463.1302, 172.9922
463.6123, 186.3320
464.0944, 125.7969
464.5765, 53.72656
465.0587, 22.31641
465.5408, 27.55859
466.0229, 51.59766
466.5050, 88.78125
466.9871, 133.6562
467.4692, 177.6133
467.9514, 238.5820
468.4335, 256.5547
468.9156, 199.5859
469.3977, 128.2656
469.8798, 73.58594
470.3619, 37.82031
470.8441, 15.73047
471.3262, 4.734375
471.8083, 2.308594
472.2904, 0.8164060
472.7725, 0.3398440
473.2546, 0.8593750
473.7368, 7.734375
474.2189, 11.64844
474.7010, 1.578125
475.1831, 20.56641
475.6652, 35.62891
476.1473, 27.14844
476.6295, 6.789063
477.1116, 11.08984
477.5937, 26.20312
478.0758, 16.98828
478.5579, 44.48047
479.0400, 123.0156
479.5222, 122.9570
480.0043, 0.2421880
480.4864, 78.85156
480.9685, 48.09766
481.4506, 18.69922
481.9327, 63.64062
482.4149, 78.67188
482.8970, 71.91016
483.3791, 46.33594
483.8612, 7.683594
484.3433, 8.714844
484.8254, 36.73047
485.3076, 37.34375
485.7897, 61.73438
486.2718, 177.8945
486.7539, 244.5859
487.2360, 255.1172
487.7181, 248.7852
488.2003, 251.4570
488.6824, 259.9492
489.1645, 267.5625
489.6466, 275.0234
490.1287, 275.0000
490.6108, 247.5000
491.0930, 219.6562
491.5751, 250.9531
492.0572, 369.5547
492.5393, 465.0977
493.0214, 499.1289
493.5035, 490.9883
493.9857, 444.9844
494.4678, 370.9961
494.9499, 311.3945
495.4320, 300.7773
495.9141, 330.5469
496.3962, 343.9375
496.8784, 327.5898
497.3605, 312.8672
497.8426, 286.0938
498.3247, 273.3320
498.8068, 309.0039
499.2889, 388.7070
499.7711, 463.1992
500.2532, 488.7148
500.7353, 476.7109
501.2174, 469.0898
501.6995, 466.6680
502.1816, 466.0312
502.6638, 475.2695
503.1459, 478.9727
503.6280, 446.6719
504.1101, 363.3945
504.5922, 306.4180
505.0743, 321.7266
505.5565, 368.9062
506.0386, 403.6016
506.5207, 422.6289
507.0028, 443.5703
507.4849, 480.5312
507.9670, 525.7305
508.4492, 545.7305
508.9313, 531.7500
509.4134, 503.6367
509.8955, 442.2461
510.3776, 385.4023
510.8597, 361.3867
511.3419, 367.3203
511.8240, 379.8203
512.3061, 381.8281
512.7882, 378.1484
513.2703, 383.7930
513.7524, 402.0000
514.2346, 411.0664
514.7167, 385.2734
515.1988, 360.8359
515.6809, 395.2656
516.1630, 495.5547
516.6451, 566.0625
517.1273, 575.1914
517.6094, 544.8281
518.0915, 479.7617
518.5736, 393.3555
519.0557, 319.0117
519.5378, 272.2617
520.0200, 249.0078
520.5021, 245.3203
520.9842, 281.7930
521.4663, 301.2227
521.9484, 298.8633
522.4305, 283.8750
522.9127, 243.8984
523.3948, 196.6914
523.8769, 186.6211
524.3590, 247.3242
524.8411, 333.3047
525.3232, 369.0898
525.8054, 354.8945
526.2875, 330.8555
526.7696, 290.4570
527.2517, 269.5391
527.7338, 323.5586
528.2159, 442.3262
528.6981, 539.1367
529.1802, 609.6094
529.6623, 647.0684
530.1444, 622.4297
530.6265, 566.7090
531.1086, 543.2812
531.5908, 573.0879
532.0729, 620.1250
532.5550, 635.1602
533.0371, 613.8203
533.5192, 582.2832
534.0013, 504.6562
534.4835, 462.5723
534.9656, 506.0273
535.4477, 588.4785
535.9298, 653.1113
536.4119, 682.8730
536.8940, 672.9473
537.3762, 599.7227
537.8583, 494.6406
538.3404, 432.7754
538.8225, 423.6035
539.3046, 446.8242
539.7867, 504.2207
540.2689, 583.2520
540.7510, 619.5449
541.2331, 583.3379
541.7152, 556.5391
542.1973, 562.0469
542.6794, 574.8711
543.1616, 583.7734
543.6437, 586.2520
544.1258, 565.1465
544.6079, 504.0312
545.0900, 419.0215
545.5721, 386.0605
546.0543, 430.2324
546.5364, 457.5195
547.0185, 421.8105
547.5006, 377.2539
547.9827, 370.9980
548.4648, 400.8574
548.9470, 421.0508
549.4291, 404.8164
549.9112, 373.9160
550.3933, 353.6875
550.8754, 340.6621
551.3575, 311.7285
551.8397, 252.5020
552.3218, 198.3965
552.8039, 211.1055
553.2860, 321.0449
553.7681, 395.0801
554.2502, 424.6465
554.7324, 433.3262
555.2145, 418.3379
555.6966, 392.5039
556.1787, 379.6699
556.6608, 389.3008
557.1429, 388.9551
557.6251, 317.0918
558.1072, 188.2383
558.5893, 129.3906
559.0714, 169.1230
559.5535, 225.4941
560.0356, 250.8906
560.5178, 250.3027
560.9999, 247.2070
561.4820, 247.2930
561.9641, 235.5801
562.4462, 190.9102
562.9283, 142.1621
563.4105, 118.1699
563.8926, 121.9688
564.3747, 148.2266
564.8568, 199.4629
565.3389, 258.6387
565.8210, 252.6465
566.3032, 149.1074
566.7853, 62.29102
567.2674, 3.650391
567.7495, 24.88867
568.2316, 3.980469
568.7137, 54.07031
569.1959, 96.26562
569.6780, 94.65234
570.1601, 72.55664
570.6422, 42.30273
571.1243, 10.15625
571.6064, 1.128906
572.0886, 24.37695
572.5707, 57.99609
573.0528, 77.05273
573.5349, 81.08008
574.0170, 74.56836
574.4991, 59.94727
574.9813, 32.18555
575.4634, 34.75586
575.9455, 102.5391
576.4276, 121.8496
576.9097, 85.07617
577.3918, 38.53906
577.8740, 27.77734
578.3561, 40.83398
578.8382, 36.75781
579.3203, 13.53906
579.8024, 15.43359
580.2845, 49.43359
580.7667, 81.06055
581.2488, 93.94922
581.7309, 85.26172
582.2130, 74.80469
582.6951, 52.35938
583.1772, 40.78711
583.6594, 63.19336
584.1415, 107.6797
584.6236, 150.1250
585.1057, 179.4609
585.5878, 195.1016
586.0699, 193.7695
586.5521, 174.2324
587.0342, 151.5430
587.5163, 121.5938
587.9984, 95.98828
588.4805, 78.01758
588.9626, 69.45117
589.4448, 73.26367
589.9269, 86.91406
590.4090, 120.6113
590.8911, 222.3848
591.3732, 323.6875
591.8553, 319.7852
592.3375, 216.7871
592.8196, 105.4980
593.3017, 44.74609
593.7838, 22.82227
594.2659, 3.416016
594.7480, 14.27539
595.2302, 27.06250
595.7123, 33.69531
596.1944, 35.95508
596.6765, 38.83008
597.1586, 37.73047
597.6407, 18.15039
598.1229, 38.22656
598.6050, 89.33984
599.0871, 90.88281
599.5692, 58.08008
600.0513, 23.39062
600.5334, 7.187500
601.0156, 16.43945
601.4977, 13.35547
601.9798, 77.20508
602.4619, 134.2441
602.9440, 191.3398
603.4261, 231.0762
603.9083, 247.4082
604.3904, 250.0000
604.8725, 247.3320
605.3546, 238.0820
605.8367, 212.4785
606.3188, 155.6777
606.8010, 91.79297
607.2831, 53.66992
607.7652, 40.50195
608.2473, 51.77734
608.7294, 93.27148
609.2115, 136.0645
609.6937, 150.6543
610.1758, 136.8262
610.6579, 123.4590
611.1400, 103.5898
611.6221, 92.98047
612.1042, 97.66016
612.5864, 111.8223
613.0685, 133.4805
613.5506, 159.8242
614.0327, 183.8457
614.5148, 204.6680
614.9969, 215.7520
615.4791, 196.0078
615.9612, 144.0605
616.4433, 88.07422
616.9254, 24.89062
617.4075, 18.53516
617.8896, 0.6699220
618.3718, 84.08203
618.8539, 137.6035
619.3360, 143.3984
619.8181, 135.2441
620.3002, 110.5137
620.7823, 86.86328
621.2645, 88.47070
621.7466, 117.6934
622.2287, 154.0684
622.7108, 178.3457
623.1929, 195.4609
623.6750, 225.2344
624.1572, 269.2148
624.6393, 318.7793
625.1214, 383.5859
625.6035, 436.7500
626.0856, 434.5000
626.5677, 381.5488
627.0499, 357.7852
627.5320, 395.9141
628.0141, 441.1816
628.4962, 479.7148
628.9783, 501.6719
629.4604, 484.1582
629.9426, 429.7012
630.4247, 380.1406
630.9068, 377.8516
631.3889, 415.1484
631.8710, 450.1465
632.3531, 481.6230
632.8353, 515.0195
633.3174, 549.5137
633.7995, 583.1621
634.2816, 620.7715
634.7637, 664.9941
635.2458, 701.8516
635.7280, 713.4570
636.2101, 726.8223
636.6922, 753.8574
637.1743, 797.0898
637.6564, 861.7852
638.1385, 946.2832
638.6207, 1037.436
639.1028, 1123.055
639.5849, 1203.586
640.0670, 1282.947
640.5491, 1365.953
641.0313, 1428.516
641.5134, 1438.408
641.9955, 1450.154
642.4776, 1525.898
642.9597, 1660.531
643.4418, 1791.760
643.9240, 1892.387
644.4061, 2001.869
644.8882, 2164.469
645.3703, 2341.129
645.8524, 2465.686
646.3345, 2527.941
646.8167, 2570.686
647.2988, 2623.570
647.7809, 2695.395
648.2630, 2847.338
648.7451, 3112.568
649.2272, 3317.994
649.7094, 3385.156
650.1915, 3414.018
650.6736, 3510.582
651.1557, 3662.012
651.6378, 3779.287
652.1199, 3819.021
652.6021, 3853.721
653.0842, 3943.779
653.5663, 4037.330
654.0484, 4052.051
654.5305, 3984.455
655.0126, 3910.322
655.4948, 3900.586
655.9769, 3921.043
656.4590, 3851.098
656.9411, 3676.160
657.4232, 3503.199
657.9053, 3355.477
658.3875, 3214.957
658.8696, 3082.922
659.3517, 2950.807
659.8338, 2771.143
660.3159, 2469.422
660.7980, 2205.520
661.2802, 2045.092
661.7623, 1942.133
662.2444, 1863.674
662.7265, 1795.207
663.2086, 1713.262
663.6907, 1599.666
664.1729, 1470.375
664.6550, 1360.541
665.1371, 1270.891
665.6192, 1173.203
666.1013, 1051.086
666.5834, 948.9961
667.0656, 910.5879
667.5477, 920.5352
668.0298, 907.9395
668.5119, 863.4961
668.9940, 812.2422
669.4761, 758.3828
669.9583, 700.0918
670.4404, 619.7129
670.9225, 533.4238
671.4046, 485.4707
671.8867, 500.1758
672.3688, 541.0410
672.8510, 552.2598
673.3331, 540.6094
673.8152, 565.9961
674.2973, 644.9395
674.7794, 694.5938
675.2615, 656.1289
675.7437, 562.6738
676.2258, 498.6797
676.7079, 482.6289
677.1900, 454.4648
677.6721, 406.3359
678.1542, 352.1367
678.6364, 275.6992
679.1185, 206.3730
679.6006, 203.3262
680.0827, 285.2344
680.5648, 368.3125
681.0469, 351.2812
681.5291, 282.3789
682.0112, 287.0625
682.4933, 366.1270
682.9754, 439.6562
683.4575, 477.4609
683.9396, 478.4629
684.4218, 434.1172
684.9039, 329.5449
685.3860, 259.5137
685.8681, 223.4355
686.3502, 222.6133
686.8323, 288.9102
687.3145, 371.6699
687.7966, 419.3457
688.2787, 426.1152
688.7608, 418.9043
689.2429, 409.2520
689.7250, 395.5293
690.2072, 379.0293
690.6893, 358.3672
691.1714, 323.3047
691.6535, 271.8457
692.1356, 230.0176
692.6177, 225.1621
693.0999, 253.7148
693.5820, 289.6133
694.0641, 353.5430
694.5462, 378.1699
695.0283, 308.3594
695.5104, 233.5762
695.9926, 216.0762
696.4747, 246.5586
696.9568, 284.5527
697.4389, 331.9668
697.9210, 362.1055
698.4031, 346.0410
698.8853, 321.0020
699.3674, 330.2324
699.8495, 367.5293
700.3316, 400.6973
700.8137, 412.1211
701.2958, 400.6270
701.7780, 358.5488
702.2601, 285.2266
702.7422, 216.2324
703.2243, 145.9551
703.7064, 103.7227
704.1885, 119.2559
704.6707, 170.0586
705.1528, 204.4863
705.6349, 229.2598
706.1170, 231.2578
706.5991, 157.8438
707.0812, 98.36914
707.5634, 128.8809
708.0455, 208.6348
708.5276, 268.1191
709.0097, 286.6465
709.4918, 273.6621
709.9739, 218.6289
710.4561, 143.4414
710.9382, 113.5762
711.4203, 126.2461
711.9024, 111.5801
712.3845, 36.69336
712.8666, 38.83984
713.3488, 34.72852
713.8309, 54.49805
714.3130, 106.3691
714.7951, 82.60156
715.2772, 73.16797
715.7593, 104.0977
716.2415, 144.8770
716.7236, 176.5527
717.2057, 195.8535
717.6878, 199.5059
718.1699, 177.6699
718.6520, 151.9570
719.1342, 140.7949
719.6163, 136.9180
720.0984, 119.8008
720.5805, 92.38867
721.0626, 92.01562
721.5447, 147.9570
722.0269, 229.9395
722.5090, 262.4023
722.9911, 238.1289
723.4732, 212.8672
723.9553, 187.1465
724.4374, 167.6660
724.9196, 161.9180
725.4017, 163.8301
725.8838, 161.5449
726.3659, 155.9375
726.8480, 143.1719
727.3301, 106.2051
727.8123, 78.34180
728.2944, 91.38867
728.7765, 122.3164
729.2586, 127.6152
729.7407, 98.46289
730.2228, 74.65234
730.7050, 111.0371
731.1871, 170.8262
731.6692, 156.3750
732.1513, 77.11523
732.6334, 24.95312
733.1155, 28.30078
733.5977, 53.59375
734.0798, 68.46484
734.5619, 73.49414
735.0440, 75.38477
735.5261, 60.17188
736.0082, 65.48047
736.4904, 120.9766
736.9725, 173.8125
737.4546, 183.5820
737.9367, 164.6055
738.4188, 160.8340
738.9009, 192.8457
739.3831, 219.6445
739.8652, 212.4141
740.3473, 191.5371
740.8294, 184.5957
741.3115, 186.8379
741.7936, 170.2754
742.2758, 121.8184
742.7579, 69.57812
743.2400, 57.54883
743.7221, 82.47266
744.2042, 100.6270
744.6863, 113.4980
745.1685, 105.4473
745.6506, 57.97266
746.1327, 5.017578
746.6148, 4.605469
747.0969, 34.91016
747.5790, 64.09375
748.0612, 68.49219
748.5433, 81.96680
749.0254, 137.6074
749.5075, 186.9531
749.9896, 169.7559
750.4717, 101.0742
750.9539, 60.87500
751.4360, 104.1895
751.9181, 156.3203
752.4002, 145.2031
752.8823, 95.02734
753.3644, 44.02344
753.8466, 7.8130001E-03
754.3287, 26.32227
754.8108, 26.29883
755.2929, 20.21680
755.7750, 58.56836
756.2571, 151.5605
756.7393, 188.2891
757.2214, 149.6133
757.7035, 97.19531
758.1856, 48.53320
758.6677, 7.287109
759.1498, 16.08398
759.6320, 18.53516
760.1141, 36.75586
760.5962, 99.74414
761.0783, 147.7793
761.5604, 165.3848
762.0425, 152.3516
762.5247, 86.78320
763.0068, 15.06445
763.4889, 81.23047
763.9710, 58.67188
764.4531, 4.876953
764.9352, 6.654297
765.4174, 1.052734
765.8995, 43.21680
766.3816, 141.8652
766.8637, 218.9863
767.3458, 226.6289
767.8279, 189.2031
768.3101, 153.9492
768.7922, 117.4883
769.2743, 105.1582
769.7564, 121.0586
770.2385, 153.9805
770.7206, 209.0996
771.2028, 271.7305
771.6849, 325.5625
772.1670, 371.9082
772.6491, 387.3164
773.1312, 335.7520
773.6133, 292.5312
774.0955, 300.2910
774.5776, 321.9316
775.0597, 313.8438
775.5418, 277.2344
776.0239, 246.3164
776.5060, 243.5488
776.9882, 246.1934
777.4703, 219.3379
777.9524, 180.7012
778.4345, 176.4980
778.9166, 208.1621
779.3987, 241.5879
779.8809, 258.7676
780.3630, 259.3848
780.8451, 236.6895
781.3272, 186.1367
781.8093, 158.5273
782.2914, 155.2168
782.7736, 172.7656
783.2557, 225.7734
783.7378, 284.1016
784.2199, 301.5000
784.7020, 276.5684
785.1841, 277.4746
785.6663, 345.2930
786.1484, 389.7910
786.6305, 362.9297
787.1126, 321.7480
787.5947, 326.2207
788.0768, 362.3672
788.5590, 361.8633
789.0411, 277.6699
789.5232, 210.1289
790.0053, 267.8867
790.4874, 384.5430
790.9695, 467.0469
791.4517, 506.3848
791.9338, 504.4805
792.4159, 461.9160
792.8980, 408.8516
793.3801, 387.1680
793.8622, 393.2207
794.3444, 389.9883
794.8265, 375.6992
795.3086, 371.6426
795.7907, 384.4023
796.2728, 390.2109
796.7549, 359.1426
797.2371, 297.5547
797.7192, 274.4043
798.2013, 335.7676
798.6834, 373.2227
799.1655, 354.3418
799.6476, 330.2129
800.1298, 335.8613
800.6119, 356.5352
801.0940, 360.1152
801.5761, 336.8438
802.0582, 314.2207
802.5403, 310.6641
803.0225, 309.6406
803.5046, 295.7656
803.9867, 272.9688
804.4688, 242.0293
804.9509, 208.8145
805.4330, 199.4980
805.9152, 245.5879
806.3973, 318.1973
806.8794, 355.3496
807.3615, 360.7129
807.8436, 360.1035
808.3257, 357.8281
808.8079, 356.5254
809.2900, 352.3398
809.7721, 341.5273
810.2542, 313.3652
810.7363, 253.1797
811.2184, 236.1562
811.7006, 295.0371
812.1827, 340.6133
812.6648, 328.3086
813.1469, 295.6660
813.6290, 281.8359
814.1111, 283.8242
814.5933, 284.1992
815.0754, 290.0508
815.5575, 292.8125
816.0396, 285.3691
816.5217, 275.2305
817.0038, 255.6035
817.4860, 237.5605
817.9681, 258.9746
818.4502, 346.0176
818.9323, 425.8652
819.4144, 416.2441
819.8965, 371.7715
820.3787, 389.7441
820.8608, 450.5918
821.3429, 467.8281
821.8250, 418.0000
822.3071, 351.6348
822.7892, 319.2852
823.2714, 310.9727
823.7535, 282.8145
824.2356, 230.6230
824.7177, 221.7656
825.1998, 280.9902
825.6819, 342.1992
826.1641, 354.1230
826.6462, 331.0488
827.1283, 320.4961
827.6104, 324.3184
828.0925, 337.0625
828.5746, 389.0566
829.0568, 412.1738
829.5389, 352.2461
830.0210, 268.4824
830.5031, 234.2930
830.9852, 253.7676
831.4673, 271.8438
831.9495, 279.6602
832.4316, 278.3223
832.9137, 250.6797
833.3958, 226.9980
833.8779, 250.8223
834.3600, 307.4121
834.8422, 342.4043
835.3243, 331.0801
835.8064, 295.6699
836.2885, 232.7910
836.7706, 171.9590
837.2527, 177.7324
837.7349, 232.0391
838.2170, 255.8301
838.6991, 223.8672
839.1812, 182.6680
839.6633, 183.4316
840.1454, 212.3809
840.6276, 215.2578
841.1097, 191.3672
841.5918, 180.5000
842.0739, 193.3301
842.5560, 198.3008
843.0381, 165.6270
843.5203, 121.2988
844.0024, 136.1074
844.4845, 240.8398
844.9666, 302.0586
845.4487, 312.3086
845.9308, 290.1992
846.4130, 214.3223
846.8951, 127.5312
847.3772, 65.20703
847.8593, 28.56641
848.3414, 20.76953
848.8235, 64.86719
849.3057, 107.0547
849.7878, 141.5645
850.2699, 160.9297
850.7520, 161.6992
851.2341, 142.3477
851.7162, 92.08203
852.1984, 4.224609
852.6805, 65.35352
853.1626, 71.41602
853.6447, 49.00781
854.1268, 20.83398
854.6089, 2.304688
855.0911, 11.12109
855.5732, 57.66797
856.0553, 77.10938
856.5374, 16.93555
857.0195, 70.91211
857.5016, 90.86719
857.9838, 57.26758
858.4659, 31.53516
858.9480, 19.72852
859.4301, 12.54883
859.9122, 5.027344
860.3943, 4.826172
860.8765, 26.71094
861.3586, 69.11133
861.8407, 83.08984
862.3228, 54.46289
862.8049, 57.37305
863.2870, 127.8379
863.7692, 195.7227
864.2513, 209.1152
864.7334, 175.5254
865.2155, 119.3906
865.6976, 7.107422
866.1797, 57.58789
866.6619, 50.56055
867.1440, 27.42383
867.6261, 6.154297
868.1082, 20.28516
868.5903, 67.13672
869.0724, 132.4453
869.5546, 181.3555
870.0367, 208.8477
870.5188, 213.3203
871.0009, 184.5332
871.4830, 140.2227
871.9651, 80.67773
872.4473, 22.09961
872.9294, 0.5664060
873.4115, 25.46289
873.8936, 58.18359
874.3757, 65.88281
874.8578, 65.50977
875.3400, 66.86914
875.8221, 77.83984
876.3042, 122.3770
876.7863, 197.7773
877.2684, 263.9531
877.7505, 292.5449
878.2327, 303.2227
878.7148, 328.4922
879.1969, 362.8379
879.6790, 380.2148
880.1611, 381.3496
880.6432, 397.5195
881.1254, 441.7402
881.6075, 499.2598
882.0896, 556.1406
882.5717, 609.3730
883.0538, 630.3027
883.5359, 609.2168
884.0181, 636.0527
884.5002, 742.3262
884.9823, 840.6016
885.4644, 868.8984
885.9465, 858.1641
886.4286, 876.4004
886.9108, 930.8574
887.3929, 981.5449
887.8750, 1026.795
888.3571, 1070.834
888.8392, 1115.582
889.3214, 1159.865
889.8035, 1201.246
890.2856, 1239.164
890.7677, 1272.658
891.2498, 1311.490
891.7319, 1327.783
892.2141, 1302.625
892.6962, 1270.500
893.1783, 1229.115
893.6604, 1202.723
894.1425, 1242.951
894.6246, 1347.174
895.1068, 1405.453
895.5889, 1338.012
896.0710, 1257.150
896.5531, 1224.881
897.0352, 1207.305
897.5173, 1161.906
897.9995, 1100.959
898.4816, 1071.652
898.9637, 1091.273
899.4458, 1101.160
899.9279, 1039.027
900.4100, 953.7441
900.8922, 906.5020
901.3743, 883.0117
901.8564, 852.4805
902.3385, 809.1133
902.8206, 754.5078
903.3027, 685.4922
903.7849, 633.6680
904.2670, 669.2559
904.7491, 756.6836
905.2312, 781.0137
905.7133, 743.4844
906.1954, 691.8770
906.6776, 642.3223
907.1597, 602.6504
907.6418, 583.2910
908.1239, 575.1699
908.6060, 544.9023
909.0881, 492.9141
909.5703, 456.3379
910.0524, 441.9883
910.5345, 418.7559
911.0166, 375.8594
911.4987, 328.4531
911.9808, 293.9863
912.4630, 272.3418
912.9451, 272.4609
913.4272, 301.4258
913.9093, 323.8809
914.3914, 343.8535
914.8735, 347.7051
915.3557, 315.6406
915.8378, 267.3691
916.3199, 249.2852
916.8020, 271.2090
917.2841, 286.4590
917.7662, 288.3301
918.2484, 293.0605
918.7305, 308.4746
919.2126, 324.7480
919.6947, 344.9336
920.1768, 360.2656
920.6589, 335.6992
921.1411, 237.4434
921.6232, 168.6270
922.1053, 164.0938
922.5874, 168.7207
923.0695, 146.6250
923.5516, 126.2871
924.0338, 150.2793
924.5159, 216.7148
924.9980, 260.0586
925.4801, 240.5625
925.9622, 226.5020
926.4443, 266.9238
926.9265, 303.3340
927.4086, 277.9824
927.8907, 219.3242
928.3728, 173.5703
928.8549, 153.2578
929.3370, 161.9629
929.8192, 229.5781
930.3013, 294.5645
930.7834, 310.5410
931.2655, 297.8164
931.7476, 274.5332
932.2297, 246.2441
932.7119, 217.2559
933.1940, 189.0410
933.6761, 165.2578
934.1582, 151.9395
934.6403, 142.5801
935.1224, 132.2285
935.6046, 120.4199
936.0867, 97.50000
936.5688, 65.46289
937.0509, 42.77344
937.5330, 43.18945
938.0151, 60.32617
938.4973, 101.1348
938.9794, 144.9277
939.4615, 131.3027
939.9436, 76.43359
940.4257, 46.10547
940.9078, 54.18555
941.3900, 81.94336
941.8721, 124.0703
942.3542, 168.5332
942.8363, 197.4492
943.3184, 209.4180
943.8005, 187.4355
944.2827, 134.9648
944.7648, 110.4648
945.2469, 132.8594
945.7290, 140.7637
946.2111, 69.61133
946.6932, 33.63281
947.1754, 21.15430
947.6575, 106.2578
948.1396, 182.6465
948.6217, 193.9961
949.1038, 197.9004
949.5859, 220.3574
950.0681, 226.1172
950.5502, 169.6016
951.0323, 69.13086
951.5144, 17.33789
951.9965, 19.71289
952.4786, 31.40625
952.9608, 49.84766
953.4429, 72.50586
953.9250, 99.25586
954.4071, 128.1719
954.8892, 159.7871
955.3713, 192.8828
955.8535, 199.3379
956.3356, 168.5195
956.8177, 143.1309
957.2998, 130.3203
957.7819, 118.8262
958.2640, 102.8711
958.7462, 84.17578
959.2283, 64.28711
959.7104, 42.20508
960.1925, 28.88672
960.6746, 23.03711
961.1567, 29.00195
961.6389, 53.20898
962.1210, 82.15820
962.6031, 118.5312
963.0852, 148.3496
963.5673, 137.3223
964.0494, 71.21484
964.5316, 40.91797
965.0137, 89.38086
965.4958, 110.8340
965.9779, 38.06641
966.4600, 18.45703
966.9421, 40.63477
967.4243, 160.9980
967.9064, 215.7188
968.3885, 184.1035
968.8706, 158.4941
969.3527, 146.1738
969.8348, 136.6504
970.3170, 125.3730
970.7991, 117.2656
971.2812, 112.9336
971.7633, 115.4199
972.2454, 136.7715
972.7275, 192.1406
973.2097, 225.3496
973.6918, 209.4258
974.1739, 182.0215
974.6560, 138.8184
975.1381, 106.2852
975.6202, 114.0410
976.1024, 152.6348
976.5845, 188.2695
977.0666, 215.6562
977.5487, 231.6602
978.0308, 231.9629
978.5129, 227.9883
978.9951, 213.8613
979.4772, 197.0957
979.9593, 183.7168
980.4414, 175.8320
980.9235, 176.8691
981.4056, 187.2324
981.8878, 207.3242
982.3699, 264.6504
982.8520, 299.7422
983.3341, 256.6035
983.8162, 193.8320
984.2983, 184.6465
984.7805, 217.9102
985.2626, 223.0508
985.7447, 167.4043
986.2268, 124.3613
986.7089, 136.1465
987.1910, 150.1270
987.6732, 133.5938
988.1553, 103.1484
988.6374, 68.94141
989.1195, 40.47852
989.6016, 47.04492
990.0837, 114.8379
990.5659, 166.6309
991.0480, 172.4258
991.5301, 150.1836
992.0122, 93.59375
992.4943, 27.50586
992.9764, 29.13867
993.4586, 67.17383
993.9407, 70.91992
994.4228, 17.90820
994.9049, 28.20117
995.3870, 31.70898
995.8691, 26.69336
996.3513, 43.54297
996.8334, 60.61914
997.3155, 35.32812
997.7976, 20.97656
998.2797, 39.72852
998.7618, 18.28320
999.2440, 67.85547
999.7261, 56.70508
1000.208, 37.68945
1000.690, 52.31641
1001.172, 77.58203
1001.655, 75.07422
1002.137, 51.06055
1002.619, 50.23633
1003.101, 95.27539
1003.583, 141.8652
1004.065, 184.3477
1004.547, 204.1738
1005.029, 182.9199
1005.511, 138.4336
1005.994, 81.57031
1006.476, 22.67773
1006.958, 13.14648
1007.440, 12.20898
1007.922, 4.326172
1008.404, 14.55078
1008.886, 9.707031
1009.368, 57.23828
1009.851, 134.4121
1010.333, 151.6699
1010.815, 117.7871
1011.297, 96.34375
1011.779, 112.6816
1012.261, 120.0625
1012.743, 76.22656
1013.225, 42.65820
1013.707, 72.39062
1014.190, 121.8320
1014.672, 145.3145
1015.154, 141.4570
1015.636, 120.4863
1016.118, 74.55078
1016.600, 58.84375
1017.082, 136.8086
1017.564, 200.8145
1018.047, 179.5215
1018.529, 124.4395
1019.011, 87.29492
1019.493, 70.10938
1019.975, 59.01953
1020.457, 51.76367
1020.939, 45.69727
1021.421, 31.56055
1021.903, 28.82422
1022.386, 63.04688
1022.868, 98.08984
1023.350, 94.52344
1023.832, 65.78906
1024.314, 51.22266
1024.796, 61.55664
1025.278, 72.27539
1025.760, 83.91797
1026.242, 86.42383
1026.725, 59.94922
1027.207, 37.32031
1027.689, 56.47852
1028.171, 96.90430
1028.653, 113.9102
1029.135, 100.9062
1029.617, 70.12695
1030.099, 17.70703
1030.582, 65.33008
1031.064, 10.42188
1031.546, 56.27344
1032.028, 77.22461
1032.510, 65.30078
1032.992, 38.46680
1033.474, 5.269531
1033.956, 13.61133
1034.438, 74.12305
1034.921, 116.5820
1035.403, 38.22461
1035.885, 33.55469
1036.367, 10.25781
1036.849, 53.44531
1037.331, 72.56641
1037.813, 44.20312
1038.295, 33.21484
1038.778, 54.05469
1039.260, 69.74219
1039.742, 72.88281
1040.224, 77.79297
1040.706, 100.4160
1041.188, 119.6152
1041.670, 102.1914
1042.152, 53.48242
1042.635, 33.96484
1043.117, 65.07617
1043.599, 77.60352
1044.081, 55.13672
1044.563, 40.80859
1045.045, 54.34961
1045.527, 76.91211
1046.009, 91.12500
1046.491, 97.54102
1046.974, 98.87891
1047.456, 95.70117
1047.938, 84.60742
1048.420, 61.20898
1048.902, 42.63281
1049.384, 35.84570
1049.866, 28.86133
1050.348, 5.302734
1050.830, 19.54297
1051.313, 11.56641
1051.795, 113.6445
1052.277, 136.9746
1052.759, 59.87695
1053.241, 29.80273
1053.723, 89.07227
1054.205, 159.7344
1054.687, 192.3086
1055.169, 196.6465
1055.652, 189.6035
1056.134, 170.9746
1056.616, 127.9355
1057.098, 57.62891
1057.580, 15.13086
1058.062, 9.787109
1058.544, 37.07031
1059.026, 97.29688
1059.509, 155.3398
1059.991, 162.8633
1060.473, 132.5293
1060.955, 97.63086
1061.437, 62.47656
1061.919, 57.14648
1062.401, 81.26953
1062.883, 99.90234
1063.365, 100.3223
1063.848, 103.0605
1064.330, 132.5566
1064.812, 165.2715
1065.294, 149.0449
1065.776, 109.1836
1066.258, 111.0547
1066.740, 147.2949
1067.222, 173.7930
1067.705, 177.2012
1068.187, 170.6152
1068.669, 163.8242
1069.151, 148.0117
1069.633, 91.05273
1070.115, 35.32812
1070.597, 59.60547
1071.079, 122.9102
1071.562, 134.9062
1072.044, 93.11914
1072.526, 62.25195
1073.008, 74.68945
1073.490, 95.90820
1073.972, 106.5430
1074.454, 100.6152
1074.936, 41.24805
1075.418, 18.45898
1075.901, 6.324219
1076.383, 84.75195
1076.865, 114.9258
1077.347, 68.49805
1077.829, 27.36523
1078.311, 31.42773
1078.793, 42.84180
1079.275, 30.51172
1079.757, 32.62500
1080.240, 106.5762
1080.722, 202.2539
1081.204, 231.3086
1081.686, 186.7969
1082.168, 145.3105
1082.650, 126.0957
1083.132, 102.1328
1083.614, 49.17969
1084.096, 14.92773
1084.579, 42.11133
1085.061, 82.89648
1085.543, 77.59961
1086.025, 38.91602
1086.507, 29.54297
1086.989, 58.70508
1087.471, 94.52930
1087.953, 149.7227
1088.436, 176.8887
1088.918, 156.9629
1089.400, 137.1445
1089.882, 159.3105
1090.364, 194.9258
1090.846, 175.7051
1091.328, 97.17578
1091.810, 71.10742
1092.292, 111.7246
1092.775, 124.9922
1093.257, 89.47266
1093.739, 67.92773
1094.221, 100.7891
1094.703, 150.8047
1095.185, 169.5371
1095.667, 164.2051
1096.149, 163.3145
1096.632, 164.7109
1097.114, 145.5703
1097.596, 107.2031
1098.078, 74.37891
1098.560, 56.52734
1099.042, 65.69922
1099.524, 115.2051
1100.006, 181.5078
1100.489, 238.8477
1100.971, 281.9180
1101.453, 289.3594
1101.935, 275.8086
1102.417, 286.9238
1102.899, 319.6699
1103.381, 320.3828
1103.863, 262.9922
1104.345, 186.8926
1104.828, 102.1172
1105.310, 37.82031
1105.792, 23.54492
1106.274, 43.50195
1106.756, 100.3418
1107.238, 168.6543
1107.720, 193.4238
1108.202, 167.4453
1108.684, 150.4766
1109.167, 202.2676
1109.649, 221.0918
1110.131, 129.0195
1110.613, 37.33984
1111.095, 19.52441
1111.577, 37.61816
1112.059, 46.89746
1112.541, 45.35254
1113.023, 40.33398
1113.506, 21.66309
1113.988, 27.65527
1114.470, 96.60352
1114.952, 129.8984
1115.434, 82.92383
1115.916, 27.19922
1116.398, 2.524414
1116.880, 3.916016
1117.363, 39.04492
1117.845, 108.4150
1118.327, 116.4072
1118.809, 48.07617
1119.291, 2.378906
1119.773, 8.099609
1120.255, 1.994141
1120.737, 13.38867
1121.219, 42.07129
1121.702, 93.59375
1122.184, 148.2979
1122.666, 147.1230
1123.148, 101.6270
1123.630, 65.78613
1124.112, 43.64551
1124.594, 48.47363
1125.076, 77.85449
1125.559, 87.50098
1126.041, 50.01855
1126.523, 18.32812
1127.005, 76.18945
1127.487, 155.0625
1127.969, 154.0664
1128.451, 111.7559
1128.933, 90.60059
1129.416, 84.62793
1129.898, 44.78516
1130.380, 34.25098
1130.862, 65.96094
1131.344, 28.00684
1131.826, 116.9951
1132.308, 128.7480
1132.790, 117.1816
1133.272, 115.7275
1133.755, 115.5801
1134.237, 85.29199
1134.719, 38.60547
1135.201, 41.56445
1135.683, 130.5049
1136.165, 171.1465
1136.647, 112.6816
1137.129, 64.41016
1137.611, 47.34375
1138.094, 41.34766
1138.576, 37.51465
1139.058, 34.19727
1139.540, 28.06250
1140.022, 20.04199
1140.504, 18.08691
1140.986, 21.74902
1141.468, 37.58984
1141.950, 68.07324
1142.433, 86.80371
1142.915, 84.73145
1143.397, 75.29395
1143.879, 66.69629
1144.361, 68.55078
1144.843, 116.1904
1145.325, 181.3467
1145.807, 158.8281
1146.290, 82.36230
1146.772, 63.12695
1147.254, 102.5186
1147.736, 132.2910
1148.218, 127.7070
1148.700, 125.2969
1149.182, 163.1270
1149.664, 195.2051
1150.146, 165.5361
1150.629, 123.9189
1151.111, 125.4873
1151.593, 146.0566
1152.075, 144.5898
1152.557, 121.3271
1153.039, 102.7930
1153.521, 97.36328
1154.003, 89.56055
1154.486, 64.43066
1154.968, 52.13281
1155.450, 73.81152
1155.932, 97.47559
1156.414, 103.4199
1156.896, 99.99609
1157.378, 101.7412
1157.860, 106.4619
1158.343, 82.47852
1158.825, 13.50879
1159.307, 4.476563
1159.789, 42.01953
1160.271, 90.20020
1160.753, 123.3184
1161.235, 138.6885
1161.717, 133.1318
1162.199, 117.8682
1162.682, 117.8750
1163.164, 121.0088
1163.646, 68.08789
1164.128, 13.45215
1164.610, 22.08203
1165.092, 32.66211
1165.574, 64.02246
1166.056, 46.45801
1166.538, 26.52832
1167.021, 37.32520
1167.503, 49.58594
1167.985, 33.67676
1168.467, 14.00195
1168.949, 7.547852
1169.431, 14.60938
1169.913, 46.25684
1170.395, 87.73926
1170.877, 96.20215
1171.360, 59.19238
1171.842, 31.11426
1172.324, 31.86914
1172.806, 25.19043
1173.288, 19.09375
1173.770, 34.48438
1174.252, 33.02734
1174.734, 105.9854
1175.217, 97.07129
1175.699, 32.08887
1176.181, 0.9306640
1176.663, 5.222656
1177.145, 23.45020
1177.627, 55.71973
1178.109, 85.54590
1178.591, 109.1016
1179.073, 110.7227
1179.556, 82.79883
1180.038, 55.18066
1180.520, 60.80078
1181.002, 79.82812
1181.484, 84.74609
1181.966, 78.20020
1182.448, 56.99219
1182.930, 33.20801
1183.413, 36.11914
1183.895, 59.56152
1184.377, 69.41309
1184.859, 57.63184
1185.341, 55.96582
1185.823, 107.4668
1186.305, 136.5312
1186.787, 83.66211
1187.270, 27.81836
1187.752, 31.03516
1188.234, 60.39160
1188.716, 66.32129
1189.198, 52.83789
1189.680, 47.61621
1190.162, 55.25586
1190.644, 51.56055
1191.126, 30.98340
1191.609, 25.04102
1192.091, 42.42773
1192.573, 64.29297
1193.055, 81.03418
1193.537, 87.45996
1194.019, 72.72754
1194.501, 49.54980
1194.983, 51.44824
1195.465, 69.10938
1195.948, 77.74707
1196.430, 79.37012
1196.912, 82.62402
1197.394, 91.20508
1197.876, 116.7490
1198.358, 167.0801
1198.840, 194.0342
1199.322, 137.6650
1199.804, 83.29102
1200.287, 93.66211
1200.769, 108.7002
1201.251, 73.51758
1201.733, 23.75195
1202.215, 4.325195
1202.697, 15.90039
1203.179, 34.17773
1203.661, 60.16895
1204.144, 96.02930
1204.626, 152.7676
1205.108, 180.4023
1205.590, 160.4307
1206.072, 120.2070
1206.554, 54.27637
1207.036, 1.939453
1207.518, 0.9453130
1208.000, 37.75586
1208.483, 50.42773
1208.965, 44.65234
1209.447, 26.79102
1209.929, 7.534180
1210.411, 25.42188
1210.893, 73.66113
1211.375, 90.64941
1211.857, 51.39355
1212.340, 13.60352
1212.822, 10.17480
1213.304, 21.91992
1213.786, 52.47070
1214.268, 78.67676
1214.750, 79.50488
1215.232, 71.04102
1215.714, 76.37207
1216.197, 89.32617
1216.679, 83.51367
1217.161, 54.71582
1217.643, 29.15625
1218.125, 2.229492
1218.607, 16.84375
1219.089, 104.3105
1219.571, 172.7764
1220.053, 186.0869
1220.536, 160.7334
1221.018, 102.6143
1221.500, 41.27148
1221.982, 39.96094
1222.464, 65.18555
1222.946, 47.08594
1223.428, 8.083008
1223.910, 1.184570
1224.392, 19.40137
1224.875, 53.19629
1225.357, 92.32129
1225.839, 104.5771
1226.321, 52.41895
1226.803, 15.90332
1227.285, 40.21582
1227.767, 60.52734
1228.249, 39.24512
1228.731, 17.94043
1229.214, 32.28711
1229.696, 62.73535
1230.178, 77.58691
1230.660, 74.70605
1231.142, 56.23828
1231.624, 19.29492
1232.106, 1.167969
1232.588, 2.145508
1233.071, 10.93262
1233.553, 36.23047
1234.035, 57.53516
1234.517, 65.22754
1234.999, 44.48828
1235.481, 28.74414
1235.963, 9.979492
1236.445, 8.766602
1236.927, 0.0000000E+00
