203.269300 0.000000
203.751416 45.062500
204.233533 27.480471
204.715649 9.097656
205.197766 15.054690
205.679882 31.203119
206.161999 61.867191
206.644115 72.296883
207.126232 62.003910
207.608348 44.363281
208.090465 17.152340
208.572581 0.488281
209.054698 3.429688
209.536814 0.054688
210.018931 9.820313
210.501047 25.019529
210.983163 42.906250
211.465280 61.597660
211.947396 83.007813
212.429513 96.867188
212.911629 86.894531
213.393746 83.414063
213.875862 111.093803
214.357979 163.425797
214.840095 210.121094
215.322212 217.378906
215.804328 177.113297
216.286445 158.535202
216.768561 151.070297
217.250677 173.308594
217.732794 259.871094
218.214910 388.351593
218.697027 498.710907
219.179143 533.703125
219.661260 490.132813
220.143376 488.507813
220.625493 567.652283
221.107609 653.738281
221.589726 731.734375
222.071842 801.578125
222.553959 870.335876
223.036075 945.683594
223.518192 1024.261963
224.000308 1065.285034
224.482424 1026.852051
224.964541 994.152283
225.446657 988.058594
225.928774 998.179688
226.410890 1008.109009
226.893007 1009.098022
227.375123 1012.995972
227.857240 1024.781006
228.339356 1040.866943
228.821473 1043.801025
229.303589 1042.968994
229.785706 1036.866943
230.267822 1013.206970
230.749938 992.613281
231.232055 987.187500
231.714171 1011.098022
232.196288 1103.520020
232.678404 1155.711060
233.160521 1133.062012
233.642637 1082.042969
234.124754 1040.285034
234.606870 1020.629028
235.088987 1014.801025
235.571103 1012.609009
236.053220 1025.593994
236.535336 1013.359009
237.017453 953.773376
237.499569 884.230530
237.981685 827.960876
238.463802 789.933594
238.945918 761.195313
239.428035 733.464783
239.910151 710.136719
240.392268 674.562500
240.874384 616.300781
241.356501 553.796875
241.838617 494.746094
242.320734 437.203094
242.802850 385.796906
243.284967 360.980499
243.767083 365.433594
244.249199 364.574188
244.731316 358.011688
245.213432 345.761688
245.695549 325.039093
246.177665 298.234406
246.659782 270.917999
247.141898 245.898407
247.624015 223.605499
248.106131 208.484406
248.588248 215.894501
249.070364 209.332001
249.552481 168.179703
250.034597 107.441399
250.516714 50.597660
250.998830 8.417969
251.480946 20.218750
251.963063 37.890621
252.445179 41.109379
252.927296 39.890621
253.409412 27.402340
253.891529 16.617189
254.373645 27.207029
254.855762 71.003906
255.337878 120.292999
255.819995 128.667999
256.302111 87.234383
256.784228 38.242191
257.266344 14.945310
257.748460 66.269531
258.230577 116.722702
258.712693 166.953094
259.194810 200.117203
259.676926 186.558594
260.159043 123.261703
260.641159 83.746094
261.123276 102.785202
261.605392 133.324203
262.087509 136.957001
262.569625 114.628899
263.051742 102.773399
263.533858 145.410202
264.015975 228.371094
264.498091 265.996094
264.980207 232.699203
265.462324 177.257797
265.944440 122.597702
266.426557 73.285156
266.908673 48.089840
267.390790 64.257813
267.872906 109.527298
268.355023 166.660202
268.837139 245.359406
269.319256 302.128906
269.801372 292.582001
270.283489 241.289093
270.765605 183.566406
271.247722 109.593803
271.729838 48.367191
272.211954 44.921879
272.694071 101.218803
273.176187 148.621094
273.658304 145.175797
274.140420 114.746101
274.622537 107.207001
275.104653 140.925797
275.586770 168.265594
276.068886 145.417999
276.551003 85.718750
277.033119 46.660160
277.515236 56.031250
277.997352 84.996094
278.479468 84.726563
278.961585 51.648441
279.443701 14.906250
279.925818 27.683590
280.407934 64.328117
280.890051 68.042969
281.372167 29.199221
281.854284 19.363279
282.336400 33.371090
282.818517 8.128906
283.300633 7.812500
283.782750 57.851559
284.264866 124.347702
284.746983 182.914093
285.229099 229.902298
285.711215 263.425812
286.193332 283.867188
286.675448 289.328094
287.157565 265.480499
287.639681 174.109406
288.121798 93.164063
288.603914 68.492188
289.086031 85.726563
289.568147 105.328102
290.050264 106.468803
290.532380 91.671883
291.014497 70.765617
291.496613 19.128910
291.978729 8.113281
292.460846 13.671880
292.942962 58.601559
293.425079 95.828117
293.907195 114.390602
294.389312 121.437500
294.871428 128.566406
295.353545 130.503906
295.835661 143.777298
296.317778 183.750000
296.799894 223.078094
297.282011 245.144501
297.764127 246.777298
298.246244 229.921906
298.728360 192.898407
299.210476 129.906204
299.692593 87.136719
300.174709 77.117188
300.656826 74.078117
301.138942 69.128906
301.621059 64.289063
302.103175 65.738281
302.585292 78.039063
303.067408 99.449219
303.549525 121.003899
304.031641 140.312500
304.513758 163.609406
304.995874 203.218796
305.477990 242.308594
305.960107 258.156189
306.442223 241.570297
306.924340 215.070297
307.406456 211.714798
307.888573 229.890594
308.370689 277.468811
308.852806 420.269501
309.334922 545.675781
309.817039 578.121094
310.299155 514.730530
310.781272 414.097687
311.263388 310.777313
311.745505 207.195297
312.227621 133.855499
312.709737 102.582001
313.191854 85.207031
313.673970 70.042969
314.156087 58.824219
314.638203 48.179691
315.120320 21.851561
315.602436 0.613281
316.084553 34.843750
316.566669 142.769501
317.048786 221.707001
317.530902 183.703094
318.013019 92.082031
318.495135 54.945309
318.977251 108.921898
319.459368 176.843796
319.941484 207.121094
320.423601 203.851593
320.905717 182.132797
321.387834 139.148407
321.869950 92.300781
322.352067 68.089844
322.834183 65.585938
323.316300 78.816406
323.798416 111.984398
324.280533 157.492203
324.762649 211.515594
325.244766 273.406189
325.726882 326.105499
326.208998 351.765594
326.691115 347.117188
327.173231 343.027313
327.655348 332.277313
328.137464 328.542999
328.619581 338.109406
329.101697 361.039093
329.583814 395.757813
330.065930 441.375000
330.548047 498.203094
331.030163 566.265625
331.512280 673.480530
331.994396 757.617188
332.476512 801.171875
332.958629 823.828125
333.440745 847.015625
333.922862 877.062500
334.404978 905.773376
334.887095 923.636719
335.369211 939.113281
335.851328 918.074219
336.333444 795.289124
336.815561 697.558594
337.297677 719.117188
337.779794 830.285217
338.261910 924.777283
338.744027 912.456970
339.226143 810.570313
339.708259 756.453125
340.190376 768.168030
340.672492 802.265625
341.154609 872.816406
341.636725 945.988281
342.118842 971.699219
342.600958 924.882813
343.083075 855.738281
343.565191 844.449219
344.047308 900.515625
344.529424 947.753906
345.011541 975.543030
345.493657 980.593811
345.975774 944.460876
346.457890 868.898376
346.940006 818.453125
347.422123 865.796875
347.904239 968.863281
348.386356 1000.195007
348.868472 926.984375
349.350589 845.597717
349.832705 843.593811
350.314822 895.882813
350.796938 928.273376
351.279055 909.855530
351.761171 881.187500
352.243288 879.011719
352.725404 897.886719
353.207520 907.691406
353.689637 892.175781
354.171753 861.273376
354.653870 843.269470
355.135986 853.718811
355.618103 842.921875
356.100219 784.585876
356.582336 706.058594
357.064452 635.601624
357.546569 580.043030
358.028685 540.921875
358.510802 521.140625
358.992918 523.972717
359.475035 529.382813
359.957151 558.023376
360.439267 568.831970
360.921384 543.543030
361.403500 486.003906
361.885617 401.839813
362.367733 290.761688
362.849850 166.398407
363.331966 76.917969
363.814083 24.750000
364.296199 8.402344
364.778316 61.929691
365.260432 125.320297
365.742549 144.761703
366.224665 110.578102
366.706781 57.890621
367.188898 20.164061
367.671014 3.222656
368.153131 4.500000
368.635247 35.808590
369.117364 75.886719
369.599480 86.250000
370.081597 79.957031
370.563713 89.925781
371.045830 143.429703
371.527946 212.320297
372.010063 245.300797
372.492179 237.031204
372.974296 231.226593
373.456412 254.433594
373.938528 286.035187
374.420645 293.843811
374.902761 271.398407
375.384878 245.085907
375.866994 218.246094
376.349111 199.050797
376.831227 208.625000
377.313344 253.578094
377.795460 310.218811
378.277577 359.550812
378.759693 400.917999
379.241810 419.113312
379.723926 403.863312
380.206042 374.121094
380.688159 317.324188
381.170275 253.257797
381.652392 239.312500
382.134508 311.546906
382.616625 436.867188
383.098741 515.828125
383.580858 510.171906
384.062974 503.695313
384.545091 491.808594
385.027207 484.015594
385.509324 483.453094
385.991440 493.191406
386.473557 522.625000
386.955673 590.734375
387.437789 701.437500
387.919906 768.945313
388.402022 746.964783
388.884139 734.324219
389.366255 762.320313
389.848372 820.480530
390.330488 894.414124
390.812605 983.257813
391.294721 1071.308960
391.776838 1122.852051
392.258954 1130.156006
392.741071 1174.558960
393.223187 1308.504028
393.705303 1460.098022
394.187420 1556.390991
394.669536 1597.359009
395.151653 1637.836060
395.633769 1717.640991
396.115886 1809.629028
396.598002 1871.461060
397.080119 1899.276978
397.562235 1896.234009
398.044352 1850.765991
398.526468 1775.109009
399.008585 1733.520020
399.490701 1747.167969
399.972818 1770.625000
400.454934 1795.395020
400.937050 1816.417969
401.419167 1824.093994
401.901283 1815.069946
402.383400 1796.741943
402.865516 1780.078003
403.347633 1768.750000
403.829749 1747.433960
404.311866 1729.977051
404.793982 1691.163940
405.276099 1600.421997
405.758215 1476.761963
406.240332 1367.823975
406.722448 1305.542969
407.204565 1275.961060
407.686681 1228.163940
408.168797 1142.491943
408.650914 1079.832031
409.133030 1072.832031
409.615147 1077.348022
410.097263 1063.901978
410.579380 1026.578003
411.061496 966.812500
411.543613 872.105530
412.025729 751.734375
412.507846 655.007813
412.989962 584.437500
413.472079 540.003906
413.954195 524.644470
414.436311 535.765625
414.918428 578.953125
415.400544 704.953125
415.882661 802.480530
416.364777 755.918030
416.846894 610.257813
417.329010 511.015594
417.811127 514.687500
418.293243 559.101624
418.775360 547.706970
419.257476 453.078094
419.739593 394.414093
420.221709 401.453094
420.703826 426.363312
421.185942 452.867188
421.668058 473.527313
422.150175 464.664093
422.632291 402.019501
423.114408 309.597687
423.596524 272.042999
424.078641 349.929688
424.560757 394.324188
425.042874 372.285187
425.524990 322.078094
426.007107 268.140594
426.489223 216.566406
426.971340 171.308594
427.453456 143.925797
427.935572 129.406204
428.417689 90.781250
428.899805 9.375000
429.381922 49.171879
429.864038 34.289059
430.346155 19.468750
430.828271 63.535160
431.310388 86.644531
431.792504 97.683594
432.274621 100.046898
432.756737 95.773438
433.238854 91.863281
433.720970 89.933594
434.203087 89.617188
434.685203 93.722656
435.167319 103.898399
435.649436 96.898438
436.131552 38.968750
436.613669 7.191406
437.095785 10.519530
437.577902 71.890617
438.060018 120.824203
438.542135 127.843803
439.024251 109.921898
439.506368 112.539101
439.988484 170.019501
440.470601 185.160202
440.952717 120.707001
441.434833 47.863281
441.916950 8.339844
442.399066 3.843750
442.881183 16.449221
443.363299 33.687500
443.845416 57.367191
444.327532 101.234398
444.809649 181.460907
445.291765 236.519501
445.773882 226.363297
446.255998 187.242203
446.738115 151.648407
447.220231 124.261703
447.702348 96.070313
448.184464 46.636719
448.666580 4.574219
449.148697 6.988281
449.630813 49.324219
450.112930 107.078102
450.595046 117.304703
451.077163 86.402344
451.559279 82.968750
452.041396 150.238297
452.523512 192.718796
453.005629 155.128906
453.487745 82.500000
453.969862 40.140621
454.451978 46.011719
454.934094 68.898438
455.416211 66.082031
455.898327 28.707029
456.380444 16.019529
456.862560 68.925781
457.344677 105.160202
457.826793 82.394531
458.308910 30.542971
458.791026 0.503906
459.273143 16.023439
459.755259 49.328121
460.237376 57.765621
460.719492 40.832031
461.201609 36.804691
461.683725 56.613281
462.165841 86.656250
462.647958 127.460899
463.130074 172.992203
463.612191 186.332001
464.094307 125.796898
464.576424 53.726559
465.058540 22.316410
465.540657 27.558590
466.022773 51.597660
466.504890 88.781250
466.987006 133.656204
467.469123 177.613297
467.951239 238.582001
468.433356 256.554688
468.915472 199.585907
469.397588 128.265594
469.879705 73.585938
470.361821 37.820309
470.843938 15.730470
471.326054 4.734375
471.808171 2.308594
472.290287 0.816406
472.772404 0.339844
473.254520 0.859375
473.736637 7.734375
474.218753 11.648440
474.700870 1.578125
475.182986 20.566410
475.665102 35.628910
476.147219 27.148439
476.629335 6.789063
477.111452 11.089840
477.593568 26.203119
478.075685 16.988279
478.557801 44.480469
479.039918 123.015602
479.522034 122.957001
480.004151 0.242188
480.486267 78.851563
480.968384 48.097660
481.450500 18.699221
481.932617 63.640621
482.414733 78.671883
482.896849 71.910156
483.378966 46.335941
483.861082 7.683594
484.343199 8.714844
484.825315 36.730469
485.307432 37.343750
485.789548 61.734379
486.271665 177.894501
486.753781 244.585907
487.235898 255.117203
487.718014 248.785202
488.200131 251.457001
488.682247 259.949188
489.164363 267.562500
489.646480 275.023407
490.128596 275.000000
490.610713 247.500000
491.092829 219.656204
491.574946 250.953094
492.057062 369.554688
492.539179 465.097687
493.021295 499.128906
493.503412 490.988312
493.985528 444.984406
494.467645 370.996094
494.949761 311.394501
495.431878 300.777313
495.913994 330.546906
496.396110 343.937500
496.878227 327.589813
497.360343 312.867188
497.842460 286.093811
498.324576 273.332001
498.806693 309.003906
499.288809 388.707001
499.770926 463.199188
500.253042 488.714813
500.735159 476.710907
501.217275 469.089813
501.699392 466.667999
502.181508 466.031189
502.663624 475.269501
503.145741 478.972687
503.627857 446.671906
504.109974 363.394501
504.592090 306.417999
505.074207 321.726593
505.556323 368.906189
506.038440 403.601593
506.520556 422.628906
507.002673 443.570313
507.484789 480.531189
507.966906 525.730530
508.449022 545.730530
508.931139 531.750000
509.413255 503.636688
509.895371 442.246094
510.377488 385.402313
510.859604 361.386688
511.341721 367.320313
511.823837 379.820313
512.305954 381.828094
512.788070 378.148407
513.270187 383.792999
513.752303 402.000000
514.234420 411.066406
514.716536 385.273407
515.198653 360.835907
515.680769 395.265594
516.162885 495.554688
516.645002 566.062500
517.127118 575.191406
517.609235 544.828125
518.091351 479.761688
518.573468 393.355499
519.055584 319.011688
519.537701 272.261688
520.019817 249.007797
520.501934 245.320297
520.984050 281.792999
521.466167 301.222687
521.948283 298.863312
522.430400 283.875000
522.912516 243.898407
523.394632 196.691406
523.876749 186.621094
524.358865 247.324203
524.840982 333.304688
525.323098 369.089813
525.805215 354.894501
526.287331 330.855499
526.769448 290.457001
527.251564 269.539093
527.733681 323.558594
528.215797 442.326202
528.697914 539.136719
529.180030 609.609375
529.662147 647.068420
530.144263 622.429688
530.626379 566.708984
531.108496 543.281189
531.590612 573.087891
532.072729 620.125000
532.554845 635.160217
533.036962 613.820313
533.519078 582.283203
534.001195 504.656189
534.483311 462.572296
534.965428 506.027313
535.447544 588.478516
535.929661 653.111328
536.411777 682.872986
536.893893 672.947327
537.376010 599.722717
537.858126 494.640594
538.340243 432.775391
538.822359 423.603485
539.304476 446.824188
539.786592 504.220703
540.268709 583.252014
540.750825 619.544922
541.232942 583.337891
541.715058 556.539124
542.197175 562.046875
542.679291 574.871094
543.161408 583.773376
543.643524 586.252014
544.125640 565.146484
544.607757 504.031189
545.089873 419.021515
545.571990 386.060486
546.054106 430.232391
546.536223 457.519501
547.018339 421.810486
547.500456 377.253906
547.982572 370.997986
548.464689 400.857391
548.946805 421.050812
549.428922 404.816406
549.911038 373.915985
550.393154 353.687500
550.875271 340.662109
551.357387 311.728485
551.839504 252.501999
552.321620 198.396500
552.803737 211.105499
553.285853 321.044891
553.767970 395.080109
554.250086 424.646515
554.732203 433.326202
555.214319 418.337891
555.696436 392.503906
556.178552 379.669891
556.660669 389.300812
557.142785 388.955109
557.624901 317.091797
558.107018 188.238297
558.589134 129.390594
559.071251 169.123001
559.553367 225.494095
560.035484 250.890594
560.517600 250.302704
560.999717 247.207001
561.481833 247.292999
561.963950 235.580093
562.446066 190.910202
562.928183 142.162094
563.410299 118.169899
563.892415 121.968803
564.374532 148.226593
564.856648 199.462906
565.338765 258.638702
565.820881 252.646500
566.302998 149.107407
566.785114 62.291019
567.267231 3.650391
567.749347 24.888670
568.231464 3.980469
568.713580 54.070309
569.195697 96.265617
569.677813 94.652344
570.159930 72.556641
570.642046 42.302731
571.124162 10.156250
571.606279 1.128906
572.088395 24.376949
572.570512 57.996090
573.052628 77.052727
573.534745 81.080078
574.016861 74.568359
574.498978 59.947269
574.981094 32.185551
575.463211 34.755859
575.945327 102.539101
576.427444 121.849602
576.909560 85.076172
577.391676 38.539059
577.873793 27.777340
578.355909 40.833981
578.838026 36.757809
579.320142 13.539060
579.802259 15.433590
580.284375 49.433590
580.766492 81.060547
581.248608 93.949219
581.730725 85.261719
582.212841 74.804688
582.694958 52.359379
583.177074 40.787109
583.659191 63.193359
584.141307 107.679703
584.623423 150.125000
585.105540 179.460907
585.587656 195.101593
586.069773 193.769501
586.551889 174.232407
587.034006 151.542999
587.516122 121.593803
587.998239 95.988281
588.480355 78.017578
588.962472 69.451172
589.444588 73.263672
589.926705 86.914063
590.408821 120.611298
590.890938 222.384796
591.373054 323.687500
591.855170 319.785187
592.337287 216.787094
592.819403 105.498001
593.301520 44.746090
593.783636 22.822269
594.265753 3.416016
594.747869 14.275390
595.229986 27.062500
595.712102 33.695309
596.194219 35.955078
596.676335 38.830078
597.158452 37.730469
597.640568 18.150391
598.122684 38.226559
598.604801 89.339844
599.086917 90.882813
599.569034 58.080078
600.051150 23.390619
600.533267 7.187500
601.015383 16.439449
601.497500 13.355470
601.979616 77.205078
602.461733 134.244095
602.943849 191.339798
603.425966 231.076202
603.908082 247.408203
604.390199 250.000000
604.872315 247.332001
605.354431 238.082001
605.836548 212.478500
606.318664 155.677704
606.800781 91.792969
607.282897 53.669922
607.765014 40.501949
608.247130 51.777340
608.729247 93.271477
609.211363 136.064499
609.693480 150.654297
610.175596 136.826202
610.657713 123.459000
611.139829 103.589798
611.621945 92.980469
612.104062 97.660156
612.586178 111.822304
613.068295 133.480499
613.550411 159.824203
614.032528 183.845703
614.514644 204.667999
614.996761 215.751999
615.478877 196.007797
615.960994 144.060501
616.443110 88.074219
616.925227 24.890619
617.407343 18.535160
617.889460 0.669922
618.371576 84.082031
618.853692 137.603500
619.335809 143.398407
619.817925 135.244095
620.300042 110.513702
620.782158 86.863281
621.264275 88.470703
621.746391 117.693398
622.228508 154.068405
622.710624 178.345703
623.192741 195.460907
623.674857 225.234406
624.156974 269.214813
624.639090 318.779297
625.121206 383.585907
625.603323 436.750000
626.085439 434.500000
626.567556 381.548798
627.049672 357.785187
627.531789 395.914093
628.013905 441.181610
628.496022 479.714813
628.978138 501.671906
629.460255 484.158203
629.942371 429.701202
630.424488 380.140594
630.906604 377.851593
631.388721 415.148407
631.870837 450.146515
632.352953 481.622986
632.835070 515.019470
633.317186 549.513672
633.799303 583.162109
634.281419 620.771484
634.763536 664.994080
635.245652 701.851624
635.727769 713.456970
636.209885 726.822327
636.692002 753.857422
637.174118 797.089783
637.656235 861.785217
638.138351 946.283203
638.620467 1037.436035
639.102584 1123.055054
639.584700 1203.586060
640.066817 1282.947021
640.548933 1365.953003
641.031050 1428.515991
641.513166 1438.407959
641.995283 1450.154053
642.477399 1525.897949
642.959516 1660.531006
643.441632 1791.760010
643.923749 1892.386963
644.405865 2001.869019
644.887982 2164.468994
645.370098 2341.128906
645.852214 2465.686035
646.334331 2527.940918
646.816447 2570.686035
647.298564 2623.570068
647.780680 2695.395020
648.262797 2847.337891
648.744913 3112.568115
649.227030 3317.993896
649.709146 3385.156006
650.191263 3414.018066
650.673379 3510.582031
651.155496 3662.011963
651.637612 3779.287109
652.119728 3819.020996
652.601845 3853.720947
653.083961 3943.779053
653.566078 4037.330078
654.048194 4052.051025
654.530311 3984.455078
655.012427 3910.322021
655.494544 3900.585938
655.976660 3921.042969
656.458777 3851.097900
656.940893 3676.159912
657.423010 3503.198975
657.905126 3355.477051
658.387243 3214.957031
658.869359 3082.922119
659.351475 2950.806885
659.833592 2771.143066
660.315708 2469.422119
660.797825 2205.520020
661.279941 2045.092041
661.762058 1942.133057
662.244174 1863.673950
662.726291 1795.207031
663.208407 1713.261963
663.690524 1599.666016
664.172640 1470.375000
664.654757 1360.541016
665.136873 1270.890991
665.618990 1173.203003
666.101106 1051.086060
666.583222 948.996094
667.065339 910.587891
667.547455 920.535217
668.029572 907.939514
668.511688 863.496094
668.993805 812.242188
669.475921 758.382813
669.958038 700.091797
670.440154 619.712891
670.922271 533.423828
671.404387 485.470703
671.886504 500.175812
672.368620 541.041016
672.850736 552.259827
673.332853 540.609375
673.814969 565.996094
674.297086 644.939514
674.779202 694.593811
675.261319 656.128906
675.743435 562.673828
676.225552 498.679688
676.707668 482.628906
677.189785 454.464813
677.671901 406.335907
678.154018 352.136688
678.636134 275.699188
679.118251 206.373001
679.600367 203.326202
680.082483 285.234406
680.564600 368.312500
681.046716 351.281189
681.528833 282.378906
682.010949 287.062500
682.493066 366.127014
682.975182 439.656189
683.457299 477.460907
683.939415 478.462891
684.421532 434.117188
684.903648 329.544891
685.385765 259.513702
685.867881 223.435501
686.349997 222.613297
686.832114 288.910187
687.314230 371.669891
687.796347 419.345703
688.278463 426.115204
688.760580 418.904297
689.242696 409.252014
689.724813 395.529297
690.206929 379.029297
690.689046 358.367188
691.171162 323.304688
691.653279 271.845703
692.135395 230.017593
692.617512 225.162094
693.099628 253.714798
693.581744 289.613312
694.063861 353.542999
694.545977 378.169891
695.028094 308.359406
695.510210 233.576202
695.992327 216.076202
696.474443 246.558594
696.956560 284.552704
697.438676 331.966797
697.920793 362.105499
698.402909 346.040985
698.885026 321.002014
699.367142 330.232391
699.849258 367.529297
700.331375 400.697296
700.813491 412.121094
701.295608 400.627014
701.777724 358.548798
702.259841 285.226593
702.741957 216.232407
703.224074 145.955093
703.706190 103.722702
704.188307 119.255898
704.670423 170.058594
705.152540 204.486298
705.634656 229.259796
706.116773 231.257797
706.598889 157.843796
707.081005 98.369141
707.563122 128.880905
708.045238 208.634796
708.527355 268.119110
709.009471 286.646515
709.491588 273.662109
709.973704 218.628906
710.455821 143.441406
710.937937 113.576202
711.420054 126.246101
711.902170 111.580101
712.384287 36.693359
712.866403 38.839840
713.348519 34.728519
713.830636 54.498051
714.312752 106.369102
714.794869 82.601563
715.276985 73.167969
715.759102 104.097702
716.241218 144.876999
716.723335 176.552704
717.205451 195.853500
717.687568 199.505905
718.169684 177.669907
718.651801 151.957001
719.133917 140.794907
719.616034 136.917999
720.098150 119.800797
720.580266 92.388672
721.062383 92.015617
721.544499 147.957001
722.026616 229.939499
722.508732 262.402313
722.990849 238.128906
723.472965 212.867203
723.955082 187.146500
724.437198 167.666000
724.919315 161.917999
725.401431 163.830093
725.883548 161.544907
726.365664 155.937500
726.847781 143.171906
727.329897 106.205101
727.812013 78.341797
728.294130 91.388672
728.776246 122.316399
729.258363 127.615196
729.740479 98.462891
730.222596 74.652344
730.704712 111.037102
731.186829 170.826202
731.668945 156.375000
732.151062 77.115227
732.633178 24.953119
733.115295 28.300779
733.597411 53.593750
734.079527 68.464844
734.561644 73.494141
735.043760 75.384773
735.525877 60.171879
736.007993 65.480469
736.490110 120.976601
736.972226 173.812500
737.454343 183.582001
737.936459 164.605499
738.418576 160.834000
738.900692 192.845703
739.382809 219.644501
739.864925 212.414093
740.347042 191.537094
740.829158 184.595703
741.311274 186.837906
741.793391 170.275406
742.275507 121.818398
742.757624 69.578117
743.239740 57.548828
743.721857 82.472656
744.203973 100.626999
744.686090 113.498001
745.168206 105.447304
745.650323 57.972660
746.132439 5.017578
746.614556 4.605469
747.096672 34.910160
747.578788 64.093750
748.060905 68.492188
748.543021 81.966797
749.025138 137.607407
749.507254 186.953094
749.989371 169.755905
750.471487 101.074203
750.953604 60.875000
751.435720 104.189499
751.917837 156.320297
752.399953 145.203094
752.882070 95.027344
753.364186 44.023441
753.846303 0.007813
754.328419 26.322269
754.810535 26.298830
755.292652 20.216801
755.774768 58.568359
756.256885 151.560501
756.739001 188.289093
757.221118 149.613297
757.703234 97.195313
758.185351 48.533199
758.667467 7.287109
759.149584 16.083981
759.631700 18.535160
760.113817 36.755859
760.595933 99.744141
761.078049 147.779297
761.560166 165.384796
762.042282 152.351593
762.524399 86.783203
763.006515 15.064450
763.488632 81.230469
763.970748 58.671879
764.452865 4.876953
764.934981 6.654297
765.417098 1.052734
765.899214 43.216801
766.381331 141.865204
766.863447 218.986298
767.345564 226.628906
767.827680 189.203094
768.309796 153.949203
768.791913 117.488297
769.274029 105.158203
769.756146 121.058601
770.238262 153.980499
770.720379 209.099594
771.202495 271.730499
771.684612 325.562500
772.166728 371.908203
772.648845 387.316406
773.130961 335.752014
773.613078 292.531189
774.095194 300.290985
774.577310 321.931610
775.059427 313.843811
775.541543 277.234406
776.023660 246.316406
776.505776 243.548798
776.987893 246.193405
777.470009 219.337906
777.952126 180.701202
778.434242 176.498001
778.916359 208.162094
779.398475 241.587906
779.880592 258.767609
780.362708 259.384796
780.844825 236.689499
781.326941 186.136703
781.809057 158.527298
782.291174 155.216797
782.773290 172.765594
783.255407 225.773407
783.737523 284.101593
784.219640 301.500000
784.701756 276.568390
785.183873 277.474609
785.665989 345.292999
786.148106 389.790985
786.630222 362.929688
787.112339 321.747986
787.594455 326.220703
788.076572 362.367188
788.558688 361.863312
789.040804 277.669891
789.522921 210.128906
790.005037 267.886688
790.487154 384.542999
790.969270 467.046906
791.451387 506.384796
791.933503 504.480499
792.415620 461.915985
792.897736 408.851593
793.379853 387.167999
793.861969 393.220703
794.344086 389.988312
794.826202 375.699188
795.308318 371.642609
795.790435 384.402313
796.272551 390.210907
796.754668 359.142609
797.236784 297.554688
797.718901 274.404297
798.201017 335.767609
798.683134 373.222687
799.165250 354.341797
799.647367 330.212891
800.129483 335.861298
800.611600 356.535187
801.093716 360.115204
801.575833 336.843811
802.057949 314.220703
802.540065 310.664093
803.022182 309.640594
803.504298 295.765594
803.986415 272.968811
804.468531 242.029297
804.950648 208.814499
805.432764 199.498001
805.914881 245.587906
806.396997 318.197296
806.879114 355.349609
807.361230 360.712891
807.843347 360.103485
808.325463 357.828094
808.807579 356.525391
809.289696 352.339813
809.771812 341.527313
810.253929 313.365204
810.736045 253.179703
811.218162 236.156204
811.700278 295.037109
812.182395 340.613312
812.664511 328.308594
813.146628 295.665985
813.628744 281.835907
814.110861 283.824188
814.592977 284.199188
815.075094 290.050812
815.557210 292.812500
816.039326 285.369110
816.521443 275.230499
817.003559 255.603500
817.485676 237.560501
817.967792 258.974609
818.449909 346.017609
818.932025 425.865204
819.414142 416.244110
819.896258 371.771515
820.378375 389.744110
820.860491 450.591797
821.342608 467.828094
821.824724 418.000000
822.306840 351.634796
822.788957 319.285187
823.271073 310.972687
823.753190 282.814514
824.235306 230.623001
824.717423 221.765594
825.199539 280.990204
825.681656 342.199188
826.163772 354.122986
826.645889 331.048798
827.128005 320.496094
827.610122 324.318390
828.092238 337.062500
828.574355 389.056610
829.056471 412.173798
829.538587 352.246094
830.020704 268.482391
830.502820 234.292999
830.984937 253.767593
831.467053 271.843811
831.949170 279.660187
832.431286 278.322296
832.913403 250.679703
833.395519 226.998001
833.877636 250.822296
834.359752 307.412109
834.841869 342.404297
835.323985 331.080109
835.806101 295.669891
836.288218 232.791000
836.770334 171.959000
837.252451 177.732407
837.734567 232.039093
838.216684 255.830093
838.698800 223.867203
839.180917 182.667999
839.663033 183.431595
840.145150 212.380905
840.627266 215.257797
841.109383 191.367203
841.591499 180.500000
842.073616 193.330093
842.555732 198.300797
843.037848 165.626999
843.519965 121.298798
844.002081 136.107407
844.484198 240.839798
844.966314 302.058594
845.448431 312.308594
845.930547 290.199188
846.412664 214.322296
846.894780 127.531197
847.376897 65.207031
847.859013 28.566410
848.341130 20.769529
848.823246 64.867188
849.305363 107.054703
849.787479 141.564499
850.269595 160.929703
850.751712 161.699203
851.233828 142.347702
851.715945 92.082031
852.198061 4.224609
852.680178 65.353523
853.162294 71.416023
853.644411 49.007809
854.126527 20.833981
854.608644 2.304688
855.090760 11.121090
855.572877 57.667969
856.054993 77.109383
856.537109 16.935551
857.019226 70.912109
857.501342 90.867188
857.983459 57.267578
858.465575 31.535160
858.947692 19.728519
859.429808 12.548830
859.911925 5.027344
860.394041 4.826172
860.876158 26.710939
861.358274 69.111328
861.840391 83.089844
862.322507 54.462891
862.804624 57.373051
863.286740 127.837898
863.768856 195.722702
864.250973 209.115204
864.733089 175.525406
865.215206 119.390602
865.697322 7.107422
866.179439 57.587891
866.661555 50.560551
867.143672 27.423830
867.625788 6.154297
868.107905 20.285160
868.590021 67.136719
869.072138 132.445297
869.554254 181.355499
870.036370 208.847702
870.518487 213.320297
871.000603 184.533203
871.482720 140.222702
871.964836 80.677727
872.446953 22.099609
872.929069 0.566406
873.411186 25.462891
873.893302 58.183590
874.375419 65.882813
874.857535 65.509773
875.339652 66.869141
875.821768 77.839844
876.303885 122.376999
876.786001 197.777298
877.268117 263.953094
877.750234 292.544891
878.232350 303.222687
878.714467 328.492188
879.196583 362.837891
879.678700 380.214813
880.160816 381.349609
880.642933 397.519501
881.125049 441.740204
881.607166 499.259796
882.089282 556.140625
882.571399 609.372986
883.053515 630.302673
883.535631 609.216797
884.017748 636.052673
884.499864 742.326172
884.981981 840.601624
885.464097 868.898376
885.946214 858.164124
886.428330 876.400391
886.910447 930.857422
887.392563 981.544922
887.874680 1026.795044
888.356796 1070.833984
888.838913 1115.582031
889.321029 1159.864990
889.803146 1201.245972
890.285262 1239.163940
890.767378 1272.657959
891.249495 1311.489990
891.731611 1327.782959
892.213728 1302.625000
892.695844 1270.500000
893.177961 1229.114990
893.660077 1202.723022
894.142194 1242.951050
894.624310 1347.173950
895.106427 1405.453003
895.588543 1338.011963
896.070660 1257.150024
896.552776 1224.880981
897.034892 1207.305054
897.517009 1161.906006
897.999125 1100.958984
898.481242 1071.651978
898.963358 1091.272949
899.445475 1101.160034
899.927591 1039.026978
900.409708 953.744080
900.891824 906.502014
901.373941 883.011719
901.856057 852.480530
902.338174 809.113281
902.820290 754.507813
903.302407 685.492188
903.784523 633.668030
904.266639 669.255920
904.748756 756.683594
905.230872 781.013672
905.712989 743.484375
906.195105 691.877014
906.677222 642.322327
907.159338 602.650391
907.641455 583.291016
908.123571 575.169922
908.605688 544.902283
909.087804 492.914093
909.569921 456.337891
910.052037 441.988312
910.534153 418.755890
911.016270 375.859406
911.498386 328.453094
911.980503 293.986298
912.462619 272.341797
912.944736 272.460907
913.426852 301.425812
913.908969 323.880890
914.391085 343.853485
914.873202 347.705109
915.355318 315.640594
915.837435 267.369110
916.319551 249.285202
916.801668 271.209015
917.283784 286.459015
917.765900 288.330109
918.248017 293.060486
918.730133 308.474609
919.212250 324.747986
919.694366 344.933594
920.176483 360.265594
920.658599 335.699188
921.140716 237.443405
921.622832 168.626999
922.104949 164.093796
922.587065 168.720703
923.069182 146.625000
923.551298 126.287102
924.033415 150.279297
924.515531 216.714798
924.997647 260.058594
925.479764 240.562500
925.961880 226.501999
926.443997 266.923798
926.926113 303.334015
927.408230 277.982391
927.890346 219.324203
928.372463 173.570297
928.854579 153.257797
929.336696 161.962906
929.818812 229.578094
930.300929 294.564514
930.783045 310.540985
931.265161 297.816406
931.747278 274.533203
932.229394 246.244095
932.711511 217.255905
933.193627 189.041000
933.675744 165.257797
934.157860 151.939499
934.639977 142.580093
935.122093 132.228500
935.604210 120.419899
936.086326 97.500000
936.568443 65.462891
937.050559 42.773441
937.532676 43.189449
938.014792 60.326172
938.496908 101.134804
938.979025 144.927704
939.461141 131.302704
939.943258 76.433594
940.425374 46.105469
940.907491 54.185551
941.389607 81.943359
941.871724 124.070297
942.353840 168.533203
942.835957 197.449203
943.318073 209.417999
943.800190 187.435501
944.282306 134.964798
944.764422 110.464798
945.246539 132.859406
945.728655 140.763702
946.210772 69.611328
946.692888 33.632809
947.175005 21.154301
947.657121 106.257797
948.139238 182.646500
948.621354 193.996094
949.103471 197.900406
949.585587 220.357407
950.067704 226.117203
950.549820 169.601593
951.031937 69.130859
951.514053 17.337891
951.996169 19.712891
952.478286 31.406250
952.960402 49.847660
953.442519 72.505859
953.924635 99.255859
954.406752 128.171906
954.888868 159.787094
955.370985 192.882797
955.853101 199.337906
956.335218 168.519501
956.817334 143.130905
957.299451 130.320297
957.781567 118.826202
958.263683 102.871101
958.745800 84.175781
959.227916 64.287109
959.710033 42.205078
960.192149 28.886721
960.674266 23.037109
961.156382 29.001949
961.638499 53.208981
962.120615 82.158203
962.602732 118.531197
963.084848 148.349594
963.566965 137.322296
964.049081 71.214844
964.531198 40.917969
965.013314 89.380859
965.495430 110.834000
965.977547 38.066410
966.459663 18.457029
966.941780 40.634769
967.423896 160.998001
967.906013 215.718796
968.388129 184.103500
968.870246 158.494095
969.352362 146.173798
969.834479 136.650406
970.316595 125.373001
970.798712 117.265602
971.280828 112.933601
971.762944 115.419899
972.245061 136.771500
972.727177 192.140594
973.209294 225.349594
973.691410 209.425797
974.173527 182.021500
974.655643 138.818405
975.137760 106.285202
975.619876 114.041000
976.101993 152.634796
976.584109 188.269501
977.066226 215.656204
977.548342 231.660202
978.030459 231.962906
978.512575 227.988297
978.994691 213.861298
979.476808 197.095703
979.958924 183.716797
980.441041 175.832001
980.923157 176.869095
981.405274 187.232407
981.887390 207.324203
982.369507 264.650391
982.851623 299.742188
983.333740 256.603485
983.815856 193.832001
984.297973 184.646500
984.780089 217.910202
985.262206 223.050797
985.744322 167.404297
986.226438 124.361298
986.708555 136.146500
987.190671 150.126999
987.672788 133.593796
988.154904 103.148399
988.637021 68.941406
989.119137 40.478519
989.601254 47.044922
990.083370 114.837898
990.565487 166.630905
991.047603 172.425797
991.529720 150.183594
992.011836 93.593750
992.493952 27.505859
992.976069 29.138670
993.458185 67.173828
993.940302 70.919922
994.422418 17.908199
994.904535 28.201170
995.386651 31.708981
995.868768 26.693359
996.350884 43.542969
996.833001 60.619141
997.315117 35.328121
997.797234 20.976561
998.279350 39.728519
998.761467 18.283199
999.243583 67.855469
999.725699 56.705078
1000.207816 37.689449
1000.689932 52.316410
1001.172049 77.582031
1001.654165 75.074219
1002.136282 51.060551
1002.618398 50.236328
1003.100515 95.275391
1003.582631 141.865204
1004.064748 184.347702
1004.546864 204.173798
1005.028981 182.919907
1005.511097 138.433594
1005.993213 81.570313
1006.475330 22.677731
1006.957446 13.146480
1007.439563 12.208980
1007.921679 4.326172
1008.403796 14.550780
1008.885912 9.707031
1009.368029 57.238281
1009.850145 134.412094
1010.332262 151.669907
1010.814378 117.787102
1011.296495 96.343750
1011.778611 112.681602
1012.260728 120.062500
1012.742844 76.226563
1013.224960 42.658199
1013.707077 72.390617
1014.189193 121.832001
1014.671310 145.314499
1015.153426 141.457001
1015.635543 120.486298
1016.117659 74.550781
1016.599776 58.843750
1017.081892 136.808594
1017.564009 200.814499
1018.046125 179.521500
1018.528242 124.439499
1019.010358 87.294922
1019.492474 70.109383
1019.974591 59.019531
1020.456707 51.763672
1020.938824 45.697269
1021.420940 31.560551
1021.903057 28.824221
1022.385173 63.046879
1022.867290 98.089844
1023.349406 94.523438
1023.831523 65.789063
1024.313639 51.222660
1024.795756 61.556641
1025.277872 72.275391
1025.759989 83.917969
1026.242105 86.423828
1026.724221 59.949219
1027.206338 37.320309
1027.688454 56.478519
1028.170571 96.904297
1028.652687 113.910202
1029.134804 100.906197
1029.616920 70.126953
1030.099037 17.707029
1030.581153 65.330078
1031.063270 10.421880
1031.545386 56.273441
1032.027503 77.224609
1032.509619 65.300781
1032.991735 38.466801
1033.473852 5.269531
1033.955968 13.611330
1034.438085 74.123047
1034.920201 116.582001
1035.402318 38.224609
1035.884434 33.554691
1036.366551 10.257810
1036.848667 53.445309
1037.330784 72.566406
1037.812900 44.203121
1038.295017 33.214840
1038.777133 54.054691
1039.259250 69.742188
1039.741366 72.882813
1040.223482 77.792969
1040.705599 100.416000
1041.187715 119.615196
1041.669832 102.191399
1042.151948 53.482422
1042.634065 33.964840
1043.116181 65.076172
1043.598298 77.603523
1044.080414 55.136719
1044.562531 40.808590
1045.044647 54.349609
1045.526764 76.912109
1046.008880 91.125000
1046.490997 97.541023
1046.973113 98.878906
1047.455229 95.701172
1047.937346 84.607422
1048.419462 61.208981
1048.901579 42.632809
1049.383695 35.845699
1049.865812 28.861330
1050.347928 5.302734
1050.830045 19.542971
1051.312161 11.566410
1051.794278 113.644501
1052.276394 136.974594
1052.758511 59.876949
1053.240627 29.802731
1053.722743 89.072273
1054.204860 159.734406
1054.686976 192.308594
1055.169093 196.646500
1055.651209 189.603500
1056.133326 170.974594
1056.615442 127.935501
1057.097559 57.628910
1057.579675 15.130860
1058.061792 9.787109
1058.543908 37.070309
1059.026025 97.296883
1059.508141 155.339798
1059.990258 162.863297
1060.472374 132.529297
1060.954490 97.630859
1061.436607 62.476559
1061.918723 57.146481
1062.400840 81.269531
1062.882956 99.902344
1063.365073 100.322304
1063.847189 103.060501
1064.329306 132.556595
1064.811422 165.271500
1065.293539 149.044907
1065.775655 109.183601
1066.257772 111.054703
1066.739888 147.294907
1067.222004 173.792999
1067.704121 177.201202
1068.186237 170.615204
1068.668354 163.824203
1069.150470 148.011703
1069.632587 91.052727
1070.114703 35.328121
1070.596820 59.605469
1071.078936 122.910202
1071.561053 134.906204
1072.043169 93.119141
1072.525286 62.251949
1073.007402 74.689453
1073.489519 95.908203
1073.971635 106.542999
1074.453751 100.615196
1074.935868 41.248051
1075.417984 18.458981
1075.900101 6.324219
1076.382217 84.751953
1076.864334 114.925797
1077.346450 68.498047
1077.828567 27.365231
1078.310683 31.427731
1078.792800 42.841801
1079.274916 30.511721
1079.757033 32.625000
1080.239149 106.576202
1080.721265 202.253906
1081.203382 231.308594
1081.685498 186.796906
1082.167615 145.310501
1082.649731 126.095703
1083.131848 102.132797
1083.613964 49.179691
1084.096081 14.927730
1084.578197 42.111328
1085.060314 82.896477
1085.542430 77.599609
1086.024547 38.916019
1086.506663 29.542971
1086.988780 58.705078
1087.470896 94.529297
1087.953012 149.722702
1088.435129 176.888702
1088.917245 156.962906
1089.399362 137.144501
1089.881478 159.310501
1090.363595 194.925797
1090.845711 175.705093
1091.327828 97.175781
1091.809944 71.107422
1092.292061 111.724602
1092.774177 124.992203
1093.256294 89.472656
1093.738410 67.927727
1094.220526 100.789101
1094.702643 150.804703
1095.184759 169.537094
1095.666876 164.205093
1096.148992 163.314499
1096.631109 164.710907
1097.113225 145.570297
1097.595342 107.203102
1098.077458 74.378906
1098.559575 56.527340
1099.041691 65.699219
1099.523808 115.205101
1100.005924 181.507797
1100.488041 238.847702
1100.970157 281.917999
1101.452273 289.359406
1101.934390 275.808594
1102.416506 286.923798
1102.898623 319.669891
1103.380739 320.382813
1103.862856 262.992188
1104.344972 186.892593
1104.827089 102.117203
1105.309205 37.820309
1105.791322 23.544920
1106.273438 43.501949
1106.755555 100.341797
1107.237671 168.654297
1107.719788 193.423798
1108.201904 167.445297
1108.684020 150.476593
1109.166137 202.267593
1109.648253 221.091797
1110.130370 129.019501
1110.612486 37.339840
1111.094603 19.524410
1111.576719 37.618160
1112.058836 46.897461
1112.540952 45.352539
1113.023069 40.333981
1113.505185 21.663090
1113.987302 27.655270
1114.469418 96.603523
1114.951534 129.898407
1115.433651 82.923828
1115.915767 27.199221
1116.397884 2.524414
1116.880000 3.916016
1117.362117 39.044922
1117.844233 108.415001
1118.326350 116.407204
1118.808466 48.076172
1119.290583 2.378906
1119.772699 8.099609
1120.254816 1.994141
1120.736932 13.388670
1121.219049 42.071289
1121.701165 93.593750
1122.183281 148.297897
1122.665398 147.123001
1123.147514 101.626999
1123.629631 65.786133
1124.111747 43.645512
1124.593864 48.473629
1125.075980 77.854492
1125.558097 87.500977
1126.040213 50.018551
1126.522330 18.328119
1127.004446 76.189453
1127.486563 155.062500
1127.968679 154.066406
1128.450795 111.755898
1128.932912 90.600594
1129.415028 84.627930
1129.897145 44.785160
1130.379261 34.250980
1130.861378 65.960938
1131.343494 28.006840
1131.825611 116.995102
1132.307727 128.748001
1132.789844 117.181602
1133.271960 115.727501
1133.754077 115.580101
1134.236193 85.291992
1134.718310 38.605469
1135.200426 41.564449
1135.682542 130.504898
1136.164659 171.146500
1136.646775 112.681602
1137.128892 64.410156
1137.611008 47.343750
1138.093125 41.347660
1138.575241 37.514648
1139.057358 34.197269
1139.539474 28.062500
1140.021591 20.041990
1140.503707 18.086910
1140.985824 21.749020
1141.467940 37.589840
1141.950056 68.073242
1142.432173 86.803711
1142.914289 84.731453
1143.396406 75.293953
1143.878522 66.696289
1144.360639 68.550781
1144.842755 116.190399
1145.324872 181.346695
1145.806988 158.828094
1146.289105 82.362297
1146.771221 63.126949
1147.253338 102.518600
1147.735454 132.291000
1148.217571 127.707001
1148.699687 125.296898
1149.181803 163.126999
1149.663920 195.205093
1150.146036 165.536102
1150.628153 123.918900
1151.110269 125.487297
1151.592386 146.056595
1152.074502 144.589798
1152.556619 121.327103
1153.038735 102.792999
1153.520852 97.363281
1154.002968 89.560547
1154.485085 64.430656
1154.967201 52.132809
1155.449317 73.811523
1155.931434 97.475594
1156.413550 103.419899
1156.895667 99.996094
1157.377783 101.741203
1157.859900 106.461899
1158.342016 82.478523
1158.824133 13.508790
1159.306249 4.476563
1159.788366 42.019531
1160.270482 90.200203
1160.752599 123.318398
1161.234715 138.688507
1161.716832 133.131805
1162.198948 117.868202
1162.681064 117.875000
1163.163181 121.008797
1163.645297 68.087891
1164.127414 13.452150
1164.609530 22.082029
1165.091647 32.662109
1165.573763 64.022461
1166.055880 46.458012
1166.537996 26.528320
1167.020113 37.325199
1167.502229 49.585941
1167.984346 33.676762
1168.466462 14.001950
1168.948578 7.547852
1169.430695 14.609380
1169.912811 46.256840
1170.394928 87.739258
1170.877044 96.202148
1171.359161 59.192379
1171.841277 31.114260
1172.323394 31.869141
1172.805510 25.190430
1173.287627 19.093750
1173.769743 34.484379
1174.251860 33.027340
1174.733976 105.985397
1175.216093 97.071289
1175.698209 32.088871
1176.180325 0.930664
1176.662442 5.222656
1177.144558 23.450199
1177.626675 55.719730
1178.108791 85.545898
1178.590908 109.101601
1179.073024 110.722702
1179.555141 82.798828
1180.037257 55.180660
1180.519374 60.800781
1181.001490 79.828117
1181.483607 84.746094
1181.965723 78.200203
1182.447840 56.992191
1182.929956 33.208012
1183.412072 36.119141
1183.894189 59.561520
1184.376305 69.413094
1184.858422 57.631840
1185.340538 55.965820
1185.822655 107.466797
1186.304771 136.531204
1186.786888 83.662109
1187.269004 27.818359
1187.751121 31.035160
1188.233237 60.391602
1188.715354 66.321289
1189.197470 52.837891
1189.679586 47.616211
1190.161703 55.255859
1190.643819 51.560551
1191.125936 30.983400
1191.608052 25.041019
1192.090169 42.427731
1192.572285 64.292969
1193.054402 81.034180
1193.536518 87.459961
1194.018635 72.727539
1194.500751 49.549801
1194.982868 51.448238
1195.464984 69.109383
1195.947101 77.747070
1196.429217 79.370117
1196.911333 82.624023
1197.393450 91.205078
1197.875566 116.749001
1198.357683 167.080093
1198.839799 194.034195
1199.321916 137.664993
1199.804032 83.291023
1200.286149 93.662109
1200.768265 108.700203
1201.250382 73.517578
1201.732498 23.751949
1202.214615 4.325195
1202.696731 15.900390
1203.178847 34.177731
1203.660964 60.168949
1204.143080 96.029297
1204.625197 152.767593
1205.107313 180.402298
1205.589430 160.430695
1206.071546 120.207001
1206.553663 54.276371
1207.035779 1.939453
1207.517896 0.945313
1208.000012 37.755859
1208.482129 50.427731
1208.964245 44.652340
1209.446362 26.791019
1209.928478 7.534180
1210.410594 25.421881
1210.892711 73.661133
1211.374827 90.649406
1211.856944 51.393551
1212.339060 13.603520
1212.821177 10.174800
1213.303293 21.919920
1213.785410 52.470699
1214.267526 78.676758
1214.749643 79.504883
1215.231759 71.041023
1215.713876 76.372070
1216.195992 89.326172
1216.678108 83.513672
1217.160225 54.715820
1217.642341 29.156250
1218.124458 2.229492
1218.606574 16.843750
1219.088691 104.310501
1219.570807 172.776398
1220.052924 186.086899
1220.535040 160.733398
1221.017157 102.614304
1221.499273 41.271481
1221.981390 39.960941
1222.463506 65.185547
1222.945623 47.085941
1223.427739 8.083008
1223.909855 1.184570
1224.391972 19.401369
1224.874088 53.196289
1225.356205 92.321289
1225.838321 104.577103
1226.320438 52.418949
1226.802554 15.903320
1227.284671 40.215820
1227.766787 60.527340
1228.248904 39.245121
1228.731020 17.940430
1229.213137 32.287109
1229.695253 62.735352
1230.177369 77.586906
1230.659486 74.706047
1231.141602 56.238281
1231.623719 19.294920
1232.105835 1.167969
1232.587952 2.145508
1233.070068 10.932620
1233.552185 36.230469
1234.034301 57.535160
1234.516418 65.227539
1234.998534 44.488281
1235.480651 28.744141
1235.962767 9.979492
1236.444884 8.766602
1236.927000 0.000000
