172.1238, 0.0000000E+00
172.6059, 12.21924
173.0880, 18.68604
173.5701, 25.53369
174.0522, 21.60681
174.5344, 13.22400
175.0165, 8.245850
175.4986, 11.86548
175.9807, 23.68042
176.4628, 42.79163
176.9449, 67.02393
177.4271, 69.27795
177.9092, 67.18176
178.3913, 62.94543
178.8734, 55.89099
179.3555, 43.91101
179.8376, 29.76111
180.3197, 16.11194
180.8019, 1.599854
181.2840, 9.718994
181.7661, 1.195190
182.2482, 22.75842
182.7303, 43.76331
183.2124, 58.09192
183.6946, 67.22290
184.1767, 72.68945
184.6588, 70.49463
185.1409, 72.07458
185.6230, 82.72534
186.1051, 97.98645
186.5873, 112.3112
187.0694, 122.3961
187.5515, 129.9758
188.0336, 141.5150
188.5157, 167.2445
188.9978, 179.4816
189.4800, 167.9556
189.9621, 144.2418
190.4442, 118.5531
190.9263, 95.14697
191.4084, 74.73596
191.8905, 58.79199
192.3727, 45.96741
192.8548, 40.89429
193.3369, 48.27728
193.8190, 60.39301
194.3011, 70.39014
194.7832, 75.58612
195.2654, 76.95697
195.7475, 76.25549
196.2296, 71.82397
196.7117, 68.37787
197.1938, 68.50281
197.6759, 69.15314
198.1581, 66.89606
198.6402, 60.59094
199.1223, 53.80347
199.6044, 51.93781
200.0865, 57.49396
200.5686, 71.40704
201.0508, 88.88910
201.5329, 104.5026
202.0150, 119.4175
202.4971, 135.4233
202.9792, 149.9990
203.4613, 163.8164
203.9435, 181.3818
204.4256, 191.5025
204.9077, 187.8422
205.3898, 181.7499
205.8719, 183.0113
206.3540, 192.9938
206.8362, 204.0595
207.3183, 204.4311
207.8004, 185.7776
208.2825, 179.6518
208.7646, 197.0762
209.2467, 216.5160
209.7289, 222.7001
210.2110, 215.3954
210.6931, 207.2327
211.1752, 213.0067
211.6573, 235.4662
212.1395, 262.2779
212.6216, 297.0775
213.1037, 332.5803
213.5858, 367.5516
214.0679, 400.4667
214.5500, 428.6649
215.0322, 449.4103
215.5143, 461.9292
215.9964, 470.2769
216.4785, 482.6889
216.9606, 483.7419
217.4427, 464.0313
217.9249, 426.7429
218.4070, 381.2983
218.8891, 334.1823
219.3712, 285.3810
219.8533, 242.4013
220.3354, 203.2847
220.8176, 172.0276
221.2997, 154.1331
221.7818, 145.1976
222.2639, 137.1329
222.7460, 124.3815
223.2281, 107.4278
223.7103, 92.38330
224.1924, 82.04877
224.6745, 70.60840
225.1566, 55.08008
225.6387, 37.96216
226.1208, 23.07373
226.6030, 12.85028
227.0851, 6.119568
227.5672, 2.275879
228.0493, 16.85223
228.5314, 26.74695
229.0135, 28.55872
229.4957, 25.65161
229.9778, 17.56384
230.4599, 8.924438
230.9420, 1.119995
231.4241, 1.949158
231.9062, 3.786377
232.3884, 7.294922
232.8705, 7.017578
233.3526, 4.287903
233.8347, 0.2321170
234.3168, 6.161255
234.7989, 12.44940
235.2811, 17.57159
235.7632, 21.82654
236.2453, 23.99268
236.7274, 21.31067
237.2095, 18.55664
237.6916, 19.69067
238.1738, 25.06873
238.6559, 30.73932
239.1380, 31.52509
239.6201, 26.68396
240.1022, 24.94666
240.5843, 29.06976
241.0665, 33.82751
241.5486, 37.76794
242.0307, 40.24365
242.5128, 40.25476
242.9949, 35.65320
243.4770, 25.76074
243.9592, 19.70239
244.4413, 21.00693
244.9234, 22.93774
245.4055, 22.91464
245.8876, 21.42850
246.3697, 20.23642
246.8519, 20.60669
247.3340, 22.39490
247.8161, 24.46265
248.2982, 27.18817
248.7803, 29.60672
249.2624, 31.25824
249.7446, 32.44510
250.2267, 33.59326
250.7088, 34.89606
251.1909, 36.50586
251.6730, 38.47186
252.1551, 40.48291
252.6373, 43.47940
253.1194, 49.02588
253.6015, 55.06027
254.0836, 59.09171
254.5657, 59.96844
255.0478, 59.56955
255.5300, 61.44327
256.0121, 66.72498
256.4942, 69.74155
256.9763, 65.55420
257.4584, 60.37808
257.9406, 59.05142
258.4227, 62.67297
258.9048, 67.86420
259.3869, 71.78281
259.8690, 74.43317
260.3511, 74.80511
260.8333, 71.23712
261.3154, 66.45941
261.7975, 61.65012
262.2796, 57.02402
262.7617, 53.96783
263.2438, 53.72333
263.7260, 56.04340
264.2081, 60.03549
264.6902, 67.70230
265.1723, 73.68378
265.6544, 73.39752
266.1365, 68.27444
266.6187, 62.91086
267.1008, 57.35281
267.5829, 53.39261
268.0650, 56.21796
268.5471, 68.03262
269.0292, 79.74765
269.5114, 83.10617
269.9935, 82.17050
270.4756, 83.99393
270.9577, 92.26038
271.4398, 102.4804
271.9219, 109.0815
272.4041, 111.9685
272.8862, 116.1808
273.3683, 126.4345
273.8504, 138.3709
274.3325, 143.8945
274.8146, 140.7129
275.2968, 134.6422
275.7789, 126.9875
276.2610, 118.9309
276.7431, 115.9285
277.2252, 121.3441
277.7073, 130.8626
278.1895, 137.4891
278.6716, 141.1495
279.1537, 143.3218
279.6358, 142.0743
280.1179, 140.2082
280.6000, 143.4600
281.0822, 153.6603
281.5643, 165.4760
282.0464, 172.9025
282.5285, 175.7061
283.0106, 176.5961
283.4927, 173.3404
283.9749, 169.7747
284.4570, 170.9327
284.9391, 176.6605
285.4212, 180.0701
285.9033, 174.4611
286.3854, 160.2844
286.8676, 150.2035
287.3497, 148.3739
287.8318, 147.1133
288.3139, 143.2072
288.7960, 136.6873
289.2781, 127.4969
289.7603, 114.7163
290.2424, 99.87698
290.7245, 89.48608
291.2066, 86.75543
291.6887, 84.59186
292.1708, 81.16290
292.6530, 77.84534
293.1351, 76.94525
293.6172, 79.21616
294.0993, 82.68460
294.5814, 83.84332
295.0635, 82.06705
295.5457, 78.80533
296.0278, 72.77423
296.5099, 66.43655
296.9920, 61.03094
297.4741, 56.89478
297.9562, 54.37823
298.4384, 54.01587
298.9205, 56.11642
299.4026, 58.24881
299.8847, 59.77457
300.3668, 61.90326
300.8489, 66.49414
301.3311, 71.95969
301.8131, 74.80093
302.2953, 72.29709
302.7774, 65.87262
303.2595, 62.77725
303.7416, 64.88983
304.2237, 67.79706
304.7058, 71.30737
305.1880, 74.81464
305.6701, 77.77341
306.1522, 80.00568
306.6343, 81.42398
307.1164, 81.91223
307.5985, 81.39188
308.0807, 79.97275
308.5628, 76.34332
309.0449, 72.38760
309.5270, 69.13159
310.0091, 66.76013
310.4912, 65.59476
310.9734, 67.35947
311.4555, 71.67868
311.9376, 71.75348
312.4197, 63.77191
312.9018, 55.85709
313.3839, 53.54977
313.8661, 55.31735
314.3482, 57.23822
314.8303, 57.80670
315.3124, 57.31375
315.7945, 55.17831
316.2766, 50.62347
316.7588, 49.51447
317.2409, 60.23196
317.7230, 74.58011
318.2051, 77.89731
318.6872, 62.33719
319.1693, 46.24811
319.6515, 44.98630
320.1336, 55.52826
320.6157, 64.34683
321.0978, 66.83197
321.5799, 65.69321
322.0620, 65.08585
322.5442, 65.23291
323.0263, 64.70081
323.5084, 63.36597
323.9905, 60.94974
324.4726, 56.38919
324.9547, 49.50333
325.4369, 42.90027
325.9190, 38.78677
326.4011, 37.46274
326.8832, 38.92099
327.3653, 47.41373
327.8474, 54.62543
328.3296, 55.67047
328.8117, 51.50595
329.2938, 44.97296
329.7759, 37.24860
330.2580, 29.18863
330.7401, 24.95459
331.2223, 29.24152
331.7044, 31.58231
332.1865, 28.36624
332.6686, 23.80396
333.1507, 22.33557
333.6328, 25.35046
334.1150, 31.42664
334.5971, 39.36731
335.0792, 52.25168
335.5613, 58.33710
336.0434, 52.33063
336.5255, 45.04852
337.0077, 41.75177
337.4898, 42.23401
337.9719, 43.67886
338.4540, 43.91000
338.9361, 43.11475
339.4182, 43.03702
339.9004, 43.92438
340.3825, 45.24875
340.8646, 48.12018
341.3467, 50.84976
341.8288, 50.92746
342.3109, 47.10791
342.7931, 41.92465
343.2752, 39.83990
343.7573, 41.71442
344.2394, 40.73410
344.7215, 31.08862
345.2036, 21.61121
345.6858, 19.87158
346.1679, 26.09695
346.6500, 33.78781
347.1321, 40.10355
347.6142, 44.69003
348.0963, 46.41373
348.5785, 44.69250
349.0606, 41.59793
349.5427, 38.63202
350.0248, 35.56171
350.5069, 31.61127
350.9890, 23.94574
351.4712, 17.42361
351.9533, 17.14597
352.4354, 22.05930
352.9175, 26.84909
353.3996, 29.44217
353.8817, 29.90720
354.3639, 28.06720
354.8460, 23.15625
355.3281, 18.19608
355.8102, 13.36349
356.2923, 9.080383
356.7744, 6.157623
357.2566, 4.681946
357.7387, 3.663086
358.2208, 1.839447
358.7029, 1.255920
359.1850, 2.276733
359.6671, 0.7354740
360.1493, 2.009186
360.6314, 7.161041
361.1135, 12.94656
361.5956, 15.74780
362.0777, 13.25510
362.5598, 6.873383
363.0420, 1.731903
363.5241, 1.203552
364.0062, 4.403503
364.4883, 10.63824
364.9704, 15.71555
365.4525, 15.19824
365.9347, 8.538483
366.4168, 0.1884770
366.8989, 6.270172
367.3810, 11.04498
367.8631, 11.05896
368.3452, 1.048950
368.8274, 7.595367
369.3095, 8.692352
369.7916, 4.152588
370.2737, 1.561005
370.7558, 7.158752
371.2379, 12.14944
371.7201, 15.84418
372.2022, 18.25836
372.6843, 18.62619
373.1664, 14.77545
373.6485, 9.769470
374.1306, 8.431213
374.6128, 11.87845
375.0949, 15.82782
375.5770, 17.81674
376.0591, 18.54944
376.5412, 19.56989
377.0233, 21.25665
377.5055, 23.27194
377.9876, 23.67178
378.4697, 20.76413
378.9518, 20.48865
379.4339, 27.40536
379.9160, 33.07022
380.3982, 31.10464
380.8803, 23.54962
381.3624, 16.33282
381.8445, 12.57413
382.3266, 11.93723
382.8087, 12.84814
383.2909, 16.50793
383.7730, 19.14114
384.2551, 21.67426
384.7372, 22.84143
385.2193, 20.24881
385.7014, 14.29468
386.1836, 9.176880
386.6657, 10.20770
387.1478, 17.94080
387.6299, 20.95050
388.1120, 14.40457
388.5941, 8.492401
389.0763, 5.721191
389.5584, 5.960938
390.0405, 9.607697
390.5226, 17.86829
391.0047, 26.60745
391.4868, 28.54132
391.9690, 22.89359
392.4511, 17.79749
392.9332, 15.95590
393.4153, 14.88223
393.8974, 11.83289
394.3795, 6.801971
394.8617, 2.651703
395.3438, 0.7440190
395.8259, 0.6174320
396.3080, 2.084839
396.7901, 5.249298
397.2722, 7.867096
397.7544, 8.013550
398.2365, 6.260651
398.7186, 5.850220
399.2007, 9.533447
399.6828, 11.47815
400.1649, 7.081818
400.6471, 4.4860002E-03
401.1292, 3.297424
401.6113, 0.6953130
402.0934, 4.632019
402.5755, 8.223907
403.0576, 10.06055
403.5398, 10.19135
404.0219, 4.690704
404.5040, 0.3578800
404.9861, 2.296295
405.4682, 8.549164
405.9503, 13.86600
406.4325, 14.92001
406.9146, 12.60858
407.3967, 9.544586
407.8788, 3.544434
408.3609, 1.437164
408.8430, 9.487274
409.3252, 18.33023
409.8073, 19.41467
410.2894, 11.88028
410.7715, 3.698456
411.2536, 2.102173
411.7357, 5.876526
412.2179, 8.928070
412.7000, 10.72626
413.1821, 12.09509
413.6642, 14.04150
414.1463, 15.94348
414.6284, 16.29874
415.1106, 13.94406
415.5927, 11.06342
416.0748, 9.151886
416.5569, 7.981415
417.0390, 6.453186
417.5211, 4.100983
418.0033, 3.374084
418.4854, 7.938354
418.9675, 20.46417
419.4496, 27.79456
419.9317, 26.61932
420.4138, 22.63730
420.8960, 19.13574
421.3781, 16.25992
421.8602, 12.61816
422.3423, 6.865753
422.8244, 0.2204280
423.3065, 1.658447
423.7887, 5.130341
424.2708, 11.38721
424.7529, 18.20297
425.2350, 22.50314
425.7171, 19.61923
426.1992, 10.02136
426.6814, 0.9851380
427.1635, 1.555847
427.6456, 10.83826
428.1277, 14.48480
428.6098, 8.362579
429.0919, 4.340973
429.5741, 13.51315
430.0562, 27.31934
430.5383, 32.10526
431.0204, 21.57983
431.5025, 8.102386
431.9846, 0.9488830
432.4668, 0.7784120
432.9489, 0.8077090
433.4310, 6.372681
433.9131, 10.75555
434.3952, 5.348572
434.8773, 11.59961
435.3595, 17.51978
435.8416, 0.8216250
436.3237, 19.71570
436.8058, 23.31232
437.2879, 15.43124
437.7701, 7.823486
438.2522, 6.540558
438.7343, 8.894348
439.2164, 7.764893
439.6985, 1.718811
440.1806, 5.864349
440.6628, 1.629059
441.1449, 5.047821
441.6270, 11.61716
442.1091, 17.21710
442.5912, 21.10907
443.0733, 22.63663
443.5555, 21.90155
444.0376, 18.31708
444.5197, 9.881439
445.0018, 4.261566
445.4839, 6.936432
445.9660, 12.60562
446.4482, 16.65961
446.9303, 18.71652
447.4124, 18.54288
447.8945, 14.52594
448.3766, 8.752502
448.8587, 5.675232
449.3409, 5.961700
449.8230, 7.713837
450.3051, 9.853119
450.7872, 12.26181
451.2693, 13.87982
451.7514, 12.35852
452.2336, 12.79306
452.7157, 20.04745
453.1978, 29.19461
453.6799, 32.60065
454.1620, 28.12543
454.6441, 20.74216
455.1263, 17.95685
455.6084, 20.82001
456.0905, 22.92065
456.5726, 24.77869
457.0547, 25.30783
457.5368, 22.37738
458.0190, 18.17554
458.5011, 17.08209
458.9832, 21.59525
459.4653, 26.37741
459.9474, 20.99530
460.4295, 5.183014
460.9117, 3.800934
461.3938, 7.5470001E-02
461.8759, 7.933655
462.3580, 14.17770
462.8401, 18.59583
463.3222, 20.15424
463.8044, 15.65820
464.2865, 10.50143
464.7686, 9.723999
465.2507, 12.54755
465.7328, 16.07712
466.2149, 19.33716
466.6971, 21.75684
467.1792, 21.96378
467.6613, 18.41687
468.1434, 15.79843
468.6255, 14.64044
469.1076, 13.89227
469.5898, 13.00684
470.0719, 11.97250
470.5540, 10.94330
471.0361, 9.958893
471.5182, 9.171570
472.0003, 9.086700
472.4825, 9.974731
472.9646, 10.83350
473.4467, 13.58838
473.9288, 14.62131
474.4109, 9.391571
474.8930, 1.261200
475.3752, 9.121918
475.8573, 7.605438
476.3394, 1.024994
476.8215, 3.181213
477.3036, 4.798004
477.7857, 7.115601
478.2679, 12.53842
478.7500, 19.06378
479.2321, 21.32443
479.7142, 17.01569
480.1963, 14.82663
480.6784, 19.43439
481.1606, 24.74023
481.6427, 24.87717
482.1248, 19.83875
482.6069, 13.47845
483.0890, 8.198456
483.5711, 4.535095
484.0533, 5.784119
484.5354, 16.51337
485.0175, 24.61353
485.4996, 29.07980
485.9817, 30.14221
486.4638, 26.35556
486.9460, 18.59259
487.4281, 12.24106
487.9102, 12.31909
488.3923, 16.94980
488.8744, 20.71671
489.3565, 23.59421
489.8387, 25.38162
490.3208, 25.89713
490.8029, 25.34695
491.2850, 24.08716
491.7671, 21.81445
492.2492, 19.08258
492.7314, 13.53400
493.2135, 8.333038
493.6956, 9.456390
494.1777, 15.56195
494.6598, 20.76541
495.1419, 20.51437
495.6241, 15.63950
496.1062, 11.43256
496.5883, 5.677582
497.0704, 4.048981
497.5525, 12.04581
498.0346, 20.43301
498.5168, 20.87390
498.9989, 13.18393
499.4810, 4.779724
499.9631, 1.926147
500.4452, 3.318329
500.9273, 3.953613
501.4095, 3.459778
501.8916, 3.936310
502.3737, 7.902435
502.8558, 12.35309
503.3379, 11.85751
503.8200, 4.507385
504.3022, 6.7078002E-02
504.7843, 4.262726
505.2664, 11.82700
505.7485, 16.37009
506.2306, 17.44104
506.7127, 17.14038
507.1949, 16.89569
507.6770, 16.49615
508.1591, 14.96112
508.6412, 10.90451
509.1233, 7.697906
509.6054, 6.540771
510.0876, 5.472504
510.5697, 1.534637
511.0518, 4.198883
511.5339, 6.469147
512.0161, 0.5552980
512.4982, 12.44104
512.9803, 16.15161
513.4624, 10.22211
513.9445, 4.686127
514.4266, 2.165131
514.9088, 2.546844
515.3909, 6.820709
515.8730, 15.59763
516.3551, 20.56403
516.8372, 16.13095
517.3193, 9.334473
517.8015, 5.851196
518.2836, 5.434814
518.7657, 5.056061
519.2478, 3.786743
519.7299, 2.356079
520.2120, 2.546570
520.6942, 6.154205
521.1763, 7.890991
521.6584, 4.877533
522.1405, 2.889740
522.6226, 6.799225
523.1047, 14.31616
523.5869, 19.09290
524.0690, 17.24014
524.5511, 12.30258
525.0332, 9.976959
525.5153, 10.24698
525.9974, 10.25848
526.4796, 8.762115
526.9617, 7.754272
527.4438, 10.64545
527.9259, 16.79227
528.4080, 19.86029
528.8901, 15.54013
529.3723, 11.28937
529.8544, 12.42816
530.3365, 16.65878
530.8186, 19.25137
531.3007, 18.61478
531.7828, 16.64047
532.2650, 15.79654
532.7471, 15.84112
533.2292, 16.43970
533.7113, 20.99600
534.1934, 23.59595
534.6755, 19.54987
535.1577, 13.13538
535.6398, 11.06775
536.1219, 15.69745
536.6040, 20.54889
537.0861, 17.79706
537.5682, 10.32269
538.0504, 8.545624
538.5325, 14.51215
539.0146, 19.54236
539.4967, 16.26147
539.9788, 7.042572
540.4609, 3.843475
540.9431, 13.82300
541.4252, 19.26132
541.9073, 12.26526
542.3894, 2.196503
542.8715, 2.569427
543.3536, 1.192749
543.8358, 2.175262
544.3179, 4.481171
544.8000, 5.836060
545.2821, 6.536316
545.7642, 6.100861
546.2463, 6.380768
546.7285, 9.795593
547.2106, 12.58969
547.6927, 9.851135
548.1748, 2.332306
548.6569, 0.8027040
549.1390, 10.54926
549.6211, 24.08011
550.1032, 24.24979
550.5853, 13.86859
551.0674, 5.705078
551.5496, 4.935822
552.0317, 7.938477
552.5138, 8.877808
552.9959, 6.930847
553.4780, 5.684479
553.9601, 5.372925
554.4423, 5.388458
554.9244, 6.052155
555.4065, 6.752991
555.8886, 6.071808
556.3707, 3.429108
556.8528, 1.151154
557.3350, 2.598206
557.8171, 7.217651
558.2992, 10.96292
558.7813, 13.42258
559.2634, 15.02713
559.7455, 16.20499
560.2277, 16.68948
560.7098, 15.82050
561.1919, 13.01706
561.6740, 9.862488
562.1561, 5.873383
562.6382, 2.440674
563.1204, 0.4969790
563.6025, 0.1991580
564.0846, 1.675537
564.5667, 5.436859
565.0488, 10.32370
565.5309, 11.20377
566.0131, 5.286041
566.4952, 2.431366
566.9773, 8.378693
567.4594, 14.65543
567.9415, 15.12308
568.4236, 10.74884
568.9058, 7.139740
569.3879, 7.653442
569.8700, 10.07300
570.3521, 11.49850
570.8342, 12.07971
571.3163, 12.60043
571.7985, 13.27628
572.2806, 14.22534
572.7627, 16.19821
573.2448, 19.83862
573.7269, 18.56323
574.2090, 4.904938
574.6912, 4.526428
575.1733, 2.496521
575.6554, 4.284454
576.1375, 8.417084
576.6196, 8.248260
577.1017, 6.826935
577.5839, 6.708221
578.0660, 7.568787
578.5481, 8.595947
579.0302, 9.910828
579.5123, 9.638947
579.9944, 5.668274
580.4766, 0.7278140
580.9587, 0.6775820
581.4408, 6.859833
581.9229, 11.28790
582.4050, 10.92328
582.8871, 10.22244
583.3693, 12.87967
583.8514, 17.46368
584.3335, 20.57553
584.8156, 20.63397
585.2977, 18.69196
585.7798, 15.72626
586.2620, 11.46878
586.7441, 9.722778
587.2262, 12.27917
587.7083, 14.68576
588.1904, 13.14932
588.6725, 10.12738
589.1547, 9.946625
589.6368, 14.31894
590.1189, 18.51367
590.6010, 20.10760
591.0831, 20.33298
591.5652, 21.49579
592.0474, 23.23941
592.5295, 21.97626
593.0116, 14.80927
593.4937, 4.466888
593.9758, 0.4382020
594.4579, 2.522400
594.9401, 5.199158
595.4222, 6.324127
595.9043, 7.592041
596.3864, 10.58414
596.8685, 14.37082
597.3506, 16.66653
597.8328, 16.81647
598.3149, 14.82684
598.7970, 8.478638
599.2791, 0.1721800
599.7612, 3.135040
600.2433, 0.1034850
600.7255, 3.727539
601.2076, 3.933533
601.6897, 1.171783
602.1718, 0.6005860
602.6539, 5.057739
603.1360, 7.839874
603.6182, 6.515381
604.1003, 4.886414
604.5824, 7.142822
605.0645, 12.11826
605.5466, 13.99838
606.0287, 7.507660
606.5109, 1.295685
606.9930, 2.135284
607.4751, 3.888306
607.9572, 8.154907
608.4393, 8.030762
608.9214, 8.442383
609.4036, 15.09711
609.8857, 27.38724
610.3678, 30.64584
610.8499, 14.94803
611.3320, 4.272369
611.8141, 8.101440
612.2963, 16.58612
612.7784, 20.28644
613.2605, 18.40228
613.7426, 15.07730
614.2247, 13.00793
614.7068, 12.05884
615.1890, 12.34103
615.6711, 13.93713
616.1532, 14.52695
616.6353, 12.77145
617.1174, 11.00177
617.5995, 12.48038
618.0817, 17.29132
618.5638, 19.72812
619.0459, 17.75751
619.5280, 15.47968
620.0101, 13.89447
620.4922, 13.17865
620.9744, 14.13376
621.4565, 16.50110
621.9386, 18.05280
622.4207, 16.39194
622.9028, 12.43692
623.3849, 9.811371
623.8671, 8.677948
624.3492, 7.830353
624.8313, 6.351074
625.3134, 5.643402
625.7955, 7.754028
626.2776, 12.50232
626.7598, 17.46634
627.2419, 24.57150
627.7240, 29.36786
628.2061, 27.63898
628.6882, 22.92990
629.1703, 20.63678
629.6525, 21.85049
630.1346, 23.66946
630.6167, 23.48663
631.0988, 21.42685
631.5809, 17.34216
632.0630, 9.762848
632.5452, 5.820648
633.0273, 10.28149
633.5094, 17.67010
633.9915, 22.11545
634.4736, 23.73624
634.9557, 24.15466
635.4379, 22.94641
635.9200, 21.37064
636.4021, 20.05936
636.8842, 18.87079
637.3663, 17.12097
637.8484, 14.86447
638.3306, 13.69577
638.8127, 15.66556
639.2948, 20.03763
639.7769, 22.35544
640.2590, 22.58331
640.7411, 20.64020
641.2233, 13.76962
641.7054, 7.374237
642.1875, 8.284485
642.6696, 15.77405
643.1517, 20.72598
643.6339, 20.10339
644.1160, 17.72537
644.5981, 14.05246
645.0802, 10.62439
645.5623, 10.58630
646.0444, 14.07617
646.5266, 16.93698
647.0087, 14.59894
647.4908, 8.813446
647.9729, 8.883240
648.4550, 17.02271
648.9371, 21.95224
649.4193, 18.90601
649.9014, 13.70889
650.3835, 12.02695
650.8656, 13.35983
651.3477, 14.20895
651.8298, 13.45654
652.3120, 12.70367
652.7941, 12.18130
653.2762, 12.29965
653.7583, 13.75751
654.2404, 16.53763
654.7225, 19.92630
655.2047, 23.50723
655.6868, 27.03845
656.1689, 30.12442
656.6510, 33.18564
657.1331, 32.68442
657.6152, 25.14655
658.0974, 17.75235
658.5795, 18.09589
659.0616, 24.18198
659.5437, 27.15894
660.0258, 24.70984
660.5079, 20.96069
660.9901, 15.04074
661.4722, 9.944458
661.9543, 9.241608
662.4364, 12.72949
662.9185, 17.80331
663.4006, 23.07928
663.8828, 27.90314
664.3649, 32.17215
664.8470, 36.10510
665.3291, 31.36841
665.8112, 12.48358
666.2933, 5.737183
666.7755, 11.49847
667.2576, 7.384491
667.7397, 5.686340
668.2218, 9.308472
668.7039, 10.62408
669.1860, 8.359680
669.6682, 3.104797
670.1503, 7.411438
670.6324, 20.45703
671.1145, 29.36523
671.5966, 30.72849
672.0787, 27.79422
672.5609, 23.64917
673.0430, 18.80112
673.5251, 17.73666
674.0072, 21.66336
674.4893, 24.52661
674.9714, 22.02966
675.4536, 16.58820
675.9357, 14.64172
676.4178, 18.56219
676.8999, 20.78165
677.3820, 20.20529
677.8641, 18.81097
678.3463, 15.23511
678.8284, 12.34125
679.3105, 15.90362
679.7926, 27.73407
680.2747, 39.44800
680.7568, 43.27856
681.2390, 41.05789
681.7211, 35.74655
682.2032, 27.75989
682.6853, 21.21704
683.1674, 17.88342
683.6495, 16.95667
684.1317, 17.52090
684.6138, 20.25058
685.0959, 20.87234
685.5780, 16.81866
686.0601, 13.73184
686.5422, 13.41098
687.0244, 14.44421
687.5065, 16.03146
687.9886, 17.78168
688.4707, 17.84836
688.9528, 12.12576
689.4349, 6.524109
689.9171, 9.308533
690.3992, 17.82159
690.8813, 24.35980
691.3634, 26.79626
691.8455, 27.28021
692.3276, 28.04514
692.8098, 28.81412
693.2919, 26.76175
693.7740, 19.90201
694.2561, 14.60275
694.7382, 12.00308
695.2203, 11.40231
695.7025, 12.90002
696.1846, 16.05084
696.6667, 19.27921
697.1488, 22.16864
697.6309, 25.09680
698.1130, 30.34396
698.5952, 34.54355
699.0773, 31.89777
699.5594, 23.38812
700.0415, 15.41522
700.5236, 11.72000
701.0057, 11.80533
701.4879, 15.98920
701.9700, 24.65115
702.4521, 29.05817
702.9342, 26.70441
703.4163, 24.67395
703.8984, 28.71539
704.3806, 35.28674
704.8627, 35.34335
705.3448, 25.80591
705.8269, 19.07999
706.3090, 18.65646
706.7911, 19.66873
707.2733, 18.88144
707.7554, 17.61224
708.2375, 19.64636
708.7196, 25.80118
709.2017, 29.89801
709.6838, 22.65005
710.1660, 9.578613
710.6481, 5.381531
711.1302, 9.795227
711.6123, 15.03720
712.0944, 18.54828
712.5765, 21.12543
713.0587, 24.00211
713.5408, 27.32465
714.0229, 27.73398
714.5050, 20.99857
714.9871, 17.16507
715.4692, 19.74753
715.9514, 24.25446
716.4335, 27.66504
716.9156, 29.64496
717.3977, 30.28885
717.8798, 29.05353
718.3619, 27.32477
718.8441, 25.51471
719.3262, 24.22723
719.8083, 22.82828
720.2904, 9.912750
720.7725, 21.77542
721.2546, 28.48172
721.7368, 30.30869
722.2189, 12.64288
722.7010, 20.14838
723.1831, 17.56628
723.6652, 14.57028
724.1473, 23.48685
724.6295, 21.00104
725.1116, 16.96249
725.5937, 12.63269
726.0758, 6.817841
726.5579, 3.667877
727.0400, 7.310669
727.5222, 10.99152
728.0043, 8.472595
728.4864, 3.644836
728.9685, 4.733002
729.4506, 13.35831
729.9327, 21.86469
730.4149, 22.03345
730.8970, 16.97839
731.3791, 13.04065
731.8612, 10.38367
732.3433, 11.10449
732.8254, 16.36990
733.3076, 20.95602
733.7897, 18.78162
734.2718, 10.65912
734.7539, 7.536713
735.2360, 14.64249
735.7181, 17.95743
736.2003, 10.50623
736.6824, 3.942993
737.1645, 7.869202
737.6466, 18.42352
738.1287, 24.12631
738.6108, 20.06656
739.0930, 15.36102
739.5751, 15.87732
740.0572, 17.99438
740.5393, 17.36285
741.0214, 14.34506
741.5035, 11.13202
741.9857, 8.757111
742.4678, 7.879364
742.9499, 10.98337
743.4320, 17.45163
743.9141, 17.42892
744.3962, 9.139160
744.8784, 3.884552
745.3605, 7.345337
745.8426, 13.68762
746.3247, 16.16110
746.8068, 14.31854
747.2889, 12.66412
747.7711, 10.10364
748.2532, 9.150726
748.7353, 13.21350
749.2174, 17.30029
749.6995, 15.70807
750.1816, 9.575317
750.6638, 5.653687
751.1459, 8.582184
751.6280, 12.29529
752.1101, 10.32690
752.5922, 5.473572
753.0743, 2.887939
753.5565, 3.080688
754.0386, 4.271973
754.5207, 5.413940
755.0028, 6.970764
755.4849, 10.66183
755.9670, 17.12802
756.4492, 18.92776
756.9313, 13.52921
757.4134, 9.622986
757.8955, 12.09277
758.3776, 17.27036
758.8597, 19.48154
759.3419, 18.46698
759.8240, 17.82156
760.3061, 19.03992
760.7882, 19.21979
761.2703, 16.94443
761.7524, 13.30301
762.2346, 8.480530
762.7167, 3.158295
763.1988, 0.2554630
763.6809, 2.389191
764.1630, 5.836548
764.6451, 6.493378
765.1273, 5.077484
765.6094, 2.759369
766.0915, 3.9154001E-02
766.5736, 1.490723
767.0557, 0.3498540
767.5378, 2.293335
768.0200, 3.762421
768.5021, 3.460480
768.9842, 6.236633
769.4663, 15.34329
769.9484, 20.51379
770.4305, 14.00870
770.9127, 3.344666
771.3948, 0.1125490
771.8769, 5.022278
772.3590, 7.388397
772.8411, 2.619537
773.3232, 0.8280030
773.8054, 1.619415
774.2875, 6.153290
774.7696, 8.493927
775.2517, 8.604340
775.7338, 9.345764
776.2159, 12.59225
776.6981, 16.45428
777.1802, 19.62048
777.6623, 21.59012
778.1444, 20.28049
778.6265, 15.98596
779.1086, 12.73004
779.5908, 12.86584
780.0729, 14.67239
780.5550, 15.13544
781.0371, 14.20807
781.5192, 11.92093
782.0013, 6.869049
782.4835, 4.367126
782.9656, 8.173004
783.4477, 13.85593
783.9298, 15.45557
784.4119, 12.87399
784.8940, 11.26926
785.3762, 13.34515
785.8583, 13.18619
786.3404, 6.981995
786.8225, 0.3422240
787.3046, 5.458557
787.7867, 7.814270
788.2689, 7.306152
788.7510, 3.427765
789.2331, 1.762665
789.7152, 7.633911
790.1973, 13.15994
790.6794, 17.15149
791.1616, 19.31708
791.6437, 18.64120
792.1258, 14.67813
792.6079, 9.951996
793.0900, 7.763458
793.5721, 7.944397
794.0543, 9.218781
794.5364, 11.95050
795.0185, 13.94974
795.5006, 13.14282
795.9827, 11.39755
796.4648, 10.01175
796.9470, 8.902832
797.4291, 7.232941
797.9112, 2.936157
798.3933, 1.097107
798.8754, 3.511414
799.3575, 6.879608
799.8397, 10.67868
800.3218, 13.67276
800.8039, 13.57480
801.2860, 9.517120
801.7681, 4.841278
802.2502, 1.308594
802.7324, 5.103760
803.2145, 0.1905820
803.6966, 9.445160
804.1787, 11.45428
804.6608, 4.412048
805.1429, 1.917206
805.6251, 1.889008
806.1072, 10.19830
806.5893, 8.634369
807.0714, 0.8032840
807.5535, 0.9239200
808.0356, 11.87463
808.5178, 22.35727
808.9999, 19.87106
809.4820, 9.444519
809.9641, 3.591980
810.4462, 3.041595
810.9283, 4.552673
811.4105, 9.908905
811.8926, 14.43555
812.3747, 16.05090
812.8568, 16.09338
813.3389, 16.12680
813.8210, 16.16464
814.3032, 15.17081
814.7853, 10.87350
815.2674, 8.223907
815.7495, 9.917999
816.2316, 13.20026
816.7137, 17.03189
817.1959, 20.14001
817.6780, 19.54440
818.1601, 13.53452
818.6422, 6.758911
819.1243, 1.549042
819.6064, 1.026855
820.0886, 3.148163
820.5707, 11.67722
821.0528, 15.22070
821.5349, 10.68079
822.0170, 4.786743
822.4991, 5.428680
822.9813, 10.64142
823.4634, 11.32751
823.9455, 7.169586
824.4276, 5.568420
824.9097, 8.984375
825.3918, 11.90347
825.8740, 9.746216
826.3561, 4.257416
826.8382, 1.296051
827.3203, 1.386322
827.8024, 2.861053
828.2845, 8.704041
828.7667, 12.22849
829.2488, 8.428314
829.7309, 2.609894
830.2130, 1.219727
830.6951, 4.632477
831.1772, 8.486389
831.6594, 12.97964
832.1415, 16.30569
832.6236, 16.43335
833.1057, 15.96045
833.5878, 18.49423
834.0699, 22.94122
834.5521, 25.05194
835.0342, 22.86279
835.5163, 18.48334
835.9984, 10.95044
836.4805, 3.505737
836.9626, 3.021027
837.4448, 8.028900
837.9269, 12.50433
838.4090, 14.31662
838.8911, 14.16302
839.3732, 11.70816
839.8553, 7.922363
840.3375, 9.236572
840.8196, 15.95828
841.3017, 19.15692
841.7838, 16.64493
842.2659, 13.42960
842.7480, 12.64651
843.2302, 13.82529
843.7123, 15.95255
844.1944, 19.66190
844.6765, 22.21930
845.1586, 23.43005
845.6407, 23.20721
846.1229, 20.42297
846.6050, 17.39746
847.0871, 16.72256
847.5692, 17.92758
848.0513, 17.16534
848.5334, 10.88440
849.0156, 6.673462
849.4977, 7.135834
849.9798, 9.936401
850.4619, 16.72250
850.9440, 23.58783
851.4261, 20.75055
851.9083, 4.333496
852.3904, 8.014618
852.8725, 0.7557680
853.3546, 14.68619
853.8367, 15.66461
854.3188, 9.138275
854.8010, 7.365814
855.2831, 12.39197
855.7652, 16.95084
856.2473, 15.27173
856.7294, 11.42609
857.2115, 13.78345
857.6937, 20.44397
858.1758, 22.43826
858.6579, 19.03976
859.1400, 14.89969
859.6221, 12.40207
860.1042, 11.03046
860.5864, 11.99023
861.0685, 15.69382
861.5506, 17.46420
862.0327, 16.87665
862.5148, 16.02008
862.9969, 15.32724
863.4791, 14.32916
863.9612, 11.92993
864.4433, 8.770416
864.9254, 7.304169
865.4075, 7.771240
865.8896, 8.885406
866.3718, 11.02728
866.8539, 13.21954
867.3360, 15.22610
867.8181, 17.04358
868.3002, 19.62610
868.7823, 22.65207
869.2645, 21.89996
869.7466, 11.49802
870.2287, 3.366119
870.7108, 3.094025
871.1929, 6.193115
871.6750, 10.91302
872.1572, 15.13962
872.6393, 15.01627
873.1214, 9.078186
873.6035, 2.900269
874.0856, 0.6387630
874.5677, 1.389252
875.0499, 2.901703
875.5320, 9.473450
876.0141, 12.07498
876.4962, 10.14993
876.9783, 8.623993
877.4604, 10.97638
877.9426, 14.63324
878.4247, 14.51770
878.9068, 11.87552
879.3889, 11.72739
879.8710, 14.18750
880.3531, 16.05933
880.8353, 15.99979
881.3174, 15.67239
881.7995, 17.17685
882.2816, 20.11850
882.7637, 22.48706
883.2458, 24.65344
883.7280, 22.81418
884.2101, 15.08386
884.6922, 7.396484
885.1743, 3.322723
885.6564, 2.155579
886.1385, 2.518921
886.6207, 4.751221
887.1028, 6.981049
887.5849, 9.106293
888.0670, 11.41803
888.5491, 15.67596
889.0313, 18.64899
889.5134, 15.47467
889.9955, 8.219696
890.4776, 6.700104
890.9597, 18.39014
891.4418, 24.05475
891.9240, 13.87396
892.4061, 3.113129
892.8882, 1.696503
893.3703, 1.536255
893.8524, 4.003387
894.3345, 14.02567
894.8167, 19.22736
895.2988, 12.27469
895.7809, 3.951843
896.2630, 2.612427
896.7451, 5.692474
897.2272, 1.631012
897.7094, 7.221130
898.1915, 15.68665
898.6736, 21.93893
899.1557, 24.66403
899.6378, 18.58643
900.1199, 11.72083
900.6021, 16.93036
901.0842, 28.18188
901.5663, 32.13855
902.0484, 27.18631
902.5305, 19.54663
903.0126, 12.59845
903.4948, 8.059143
903.9769, 10.74579
904.4590, 17.59448
904.9411, 18.12247
905.4232, 12.76404
905.9053, 7.969635
906.3875, 5.866974
906.8696, 6.369354
907.3517, 10.03345
907.8338, 15.18240
908.3159, 15.24323
908.7980, 10.14758
909.2802, 10.83368
909.7623, 19.74622
910.2444, 22.98590
910.7265, 13.57108
911.2086, 0.6119080
911.6907, 1.406097
912.1729, 7.336670
912.6550, 10.95325
913.1371, 6.426422
913.6192, 6.972778
914.1013, 18.36035
914.5834, 28.66840
915.0656, 30.44519
915.5477, 25.46539
916.0298, 16.72562
916.5119, 1.031891
916.9940, 6.349609
917.4761, 0.1443480
917.9583, 7.085083
918.4404, 11.56363
918.9225, 15.19058
919.4046, 20.35931
919.8867, 25.83640
920.3688, 26.91956
920.8510, 21.69229
921.3331, 15.57758
921.8152, 4.296997
922.2973, 1.880554
922.7794, 6.874207
923.2615, 19.96759
923.7437, 25.21234
924.2258, 22.15427
924.7079, 17.21133
925.1900, 9.447540
925.6721, 4.823883
926.1542, 8.798401
926.6364, 14.03821
927.1185, 15.28146
927.6006, 13.29858
928.0827, 8.555389
928.5648, 1.868195
929.0469, 0.4070740
929.5291, 0.8341980
930.0112, 12.60803
930.4933, 19.22556
930.9754, 20.96378
931.4575, 3.208893
931.9396, 10.56042
932.4218, 7.777283
932.9039, 4.692108
933.3860, 15.65247
933.8681, 1.105469
934.3502, 12.16388
934.8323, 12.66049
935.3145, 17.84189
935.7966, 12.87357
936.2787, 11.03986
936.7608, 19.35962
937.2429, 22.05841
937.7250, 15.92258
938.2072, 21.40271
938.6893, 6.128510
939.1714, 9.066284
939.6535, 19.86148
940.1356, 14.23523
940.6177, 19.90015
941.0999, 21.26459
941.5820, 15.52914
942.0641, 22.17380
942.5462, 21.36148
943.0283, 14.61325
943.5104, 9.193176
943.9926, 5.499634
944.4747, 4.943512
944.9568, 8.044434
945.4389, 10.99414
945.9210, 10.02100
946.4031, 7.170624
946.8853, 9.950287
947.3674, 18.28775
947.8495, 15.81778
948.3316, 3.7415002E-02
948.8137, 8.387909
949.2958, 0.4133610
949.7780, 12.45767
950.2601, 17.48022
950.7422, 16.01080
951.2243, 16.51489
951.7064, 19.79553
952.1885, 20.30234
952.6707, 16.66904
953.1528, 13.47095
953.6349, 12.82425
954.1170, 13.53204
954.5991, 14.62445
955.0812, 16.43552
955.5634, 16.06390
956.0455, 11.51831
956.5276, 10.89758
957.0097, 18.25308
957.4918, 22.92838
957.9739, 17.17639
958.4561, 7.593567
958.9382, 5.576080
959.4203, 11.95487
959.9024, 13.57465
960.3845, 5.723541
960.8666, 2.802979
961.3488, 11.02292
961.8309, 18.99033
962.3130, 19.50513
962.7951, 15.21832
963.2772, 10.68890
963.7593, 5.219727
964.2415, 3.265259
964.7236, 7.236725
965.2057, 11.52258
965.6878, 16.49353
966.1699, 19.27698
966.6520, 16.61322
967.1342, 11.14529
967.6163, 8.799469
968.0984, 10.02060
968.5805, 13.14108
969.0626, 23.22131
969.5447, 28.19714
970.0269, 21.44302
970.5090, 12.12848
970.9911, 5.817413
971.4732, 2.786560
971.9553, 3.650970
972.4374, 10.06363
972.9196, 14.62360
973.4017, 15.82098
973.8838, 15.69226
974.3659, 12.10809
974.8480, 9.447571
975.3301, 15.89771
975.8123, 27.13486
976.2944, 29.59833
976.7765, 17.10770
977.2586, 9.448395
977.7407, 15.44061
978.2228, 22.35211
978.7050, 25.15167
979.1871, 24.69186
979.6692, 19.54333
980.1513, 11.52435
980.6334, 7.284760
981.1155, 9.232056
981.5977, 11.13837
982.0798, 10.14383
982.5619, 9.844818
983.0440, 14.48456
983.5261, 19.04895
984.0082, 16.11349
984.4904, 7.764343
984.9725, 4.072601
985.4546, 9.535065
985.9367, 14.23758
986.4188, 12.81870
986.9009, 11.61871
987.3831, 16.97250
987.8652, 22.97925
988.3473, 21.37485
988.8294, 13.41312
989.3115, 7.850189
989.7936, 8.559235
990.2758, 8.175934
990.7579, 0.5615540
991.2400, 5.686035
991.7221, 4.891388
992.2042, 0.3638000
992.6863, 8.909485
993.1685, 18.75436
993.6506, 23.98807
994.1327, 21.91095
994.6148, 17.68314
995.0969, 10.79175
995.5790, 5.230316
996.0612, 3.964020
996.5433, 5.327972
997.0254, 8.207458
997.5075, 11.62732
997.9896, 12.65939
998.4717, 8.877808
998.9539, 6.961334
999.4360, 13.70487
999.9181, 19.41916
1000.400, 14.81357
1000.882, 6.780060
1001.364, 4.195984
1001.847, 7.253754
1002.329, 11.75369
1002.811, 17.80652
1003.293, 20.25113
1003.775, 12.94751
1004.257, 5.245819
1004.739, 3.048767
1005.221, 4.696594
1005.703, 8.717560
1006.186, 14.02597
1006.668, 17.91479
1007.150, 21.18945
1007.632, 21.69522
1008.114, 14.74570
1008.596, 8.944733
1009.078, 12.75574
1009.560, 18.98489
1010.043, 17.62891
1010.525, 9.991730
1011.007, 5.343750
1011.489, 7.508636
1011.971, 9.073425
1012.453, 5.807983
1012.935, 2.168823
1013.417, 0.3320310
1013.899, 4.1200002E-03
1014.382, 1.134033
1014.864, 3.322754
1015.346, 5.314240
1015.828, 6.406708
1016.310, 8.834930
1016.792, 17.07117
1017.274, 22.59262
1017.756, 17.73932
1018.239, 10.23334
1018.721, 7.637573
1019.203, 9.594360
1019.685, 12.98941
1020.167, 17.74255
1020.649, 20.63043
1021.131, 21.83411
1021.613, 19.42294
1022.095, 6.940369
1022.578, 4.826874
1023.060, 3.849182
1023.542, 5.641205
1024.024, 11.14740
1024.506, 9.654358
1024.988, 8.998169
1025.470, 11.46915
1025.952, 14.75797
1026.435, 20.40884
1026.917, 24.32657
1027.399, 20.92673
1027.881, 13.96472
1028.363, 11.91211
1028.845, 16.45096
1029.327, 20.70621
1029.809, 26.48291
1030.292, 27.60416
1030.774, 17.15289
1031.256, 6.801361
1031.738, 4.666016
1032.220, 8.040497
1032.702, 12.88675
1033.184, 19.31665
1033.666, 21.00931
1034.148, 14.21158
1034.630, 7.194611
1035.113, 3.040924
1035.595, 8.472992
1036.077, 0.2283330
1036.559, 13.22852
1037.041, 19.31393
1037.523, 17.67365
1038.005, 15.32098
1038.487, 10.02954
1038.970, 7.923767
1039.452, 11.23038
1039.934, 14.91116
1040.416, 17.84201
1040.898, 19.42334
1041.380, 18.37091
1041.862, 15.01117
1042.344, 13.05472
1042.826, 13.90445
1043.309, 12.86664
1043.791, 7.411255
1044.273, 4.728424
1044.755, 9.472870
1045.237, 15.08783
1045.719, 14.02286
1046.201, 8.379761
1046.683, 8.555359
1047.166, 18.00159
1047.648, 21.00790
1048.130, 15.09048
1048.612, 9.593414
1049.094, 6.517517
1049.576, 6.161621
1050.058, 9.907227
1050.540, 14.63943
1051.022, 11.09247
1051.505, 2.673706
1051.987, 3.625916
1052.469, 10.95081
1052.951, 21.28036
1053.433, 22.49084
1053.915, 19.93222
1054.397, 16.78610
1054.879, 13.35828
1055.361, 10.10303
1055.844, 7.046906
1056.326, 3.611359
1056.808, 0.2012940
1057.290, 2.276947
1057.772, 11.70038
1058.254, 19.10355
1058.736, 19.56403
1059.218, 16.59811
1059.701, 13.87186
1060.183, 12.23465
1060.665, 17.46472
1061.147, 27.00015
1061.629, 23.13678
1062.111, 6.426086
1062.593, 1.154877
1063.075, 8.570129
1063.557, 21.11310
1064.040, 22.50491
1064.522, 18.00333
1065.004, 16.67368
1065.486, 17.17261
1065.968, 16.66479
1066.450, 14.84662
1066.932, 10.81641
1067.414, 4.920929
1067.896, 0.8753970
1068.379, 1.333496
1068.861, 4.253693
1069.343, 8.738251
1069.825, 13.18655
1070.307, 15.81714
1070.789, 16.48050
1071.271, 13.60547
1071.753, 8.497284
1072.236, 7.455811
1072.718, 14.17313
1073.200, 18.93442
1073.682, 11.59698
1074.164, 2.689728
1074.646, 0.8352970
1075.128, 2.683655
1075.610, 3.724457
1076.093, 4.518829
1076.575, 8.965485
1077.057, 18.29858
1077.539, 24.63690
1078.021, 23.56223
1078.503, 20.03860
1078.985, 13.63266
1079.467, 8.285675
1079.949, 8.134521
1080.432, 10.25455
1080.914, 9.818604
1081.396, 6.704956
1081.878, 6.652344
1082.360, 13.18457
1082.842, 19.08853
1083.324, 25.16373
1083.806, 28.12762
1084.288, 24.50171
1084.771, 18.57489
1085.253, 14.02133
1085.735, 11.00909
1086.217, 9.980682
1086.699, 12.44452
1087.181, 12.64252
1087.663, 7.949219
1088.145, 6.624023
1088.628, 12.83630
1089.110, 19.20258
1089.592, 20.41739
1090.074, 17.97034
1090.556, 14.62521
1091.038, 10.25793
1091.520, 8.861725
1092.002, 10.85910
1092.484, 13.47836
1092.967, 16.35461
1093.449, 17.73495
1093.931, 17.66449
1094.413, 16.14328
1094.895, 13.78485
1095.377, 10.51868
1095.859, 4.634003
1096.341, 2.509064
1096.823, 2.406403
1097.306, 4.752075
1097.788, 9.801208
1098.270, 9.906403
1098.752, 10.80634
1099.234, 17.42523
1099.716, 25.66437
1100.198, 30.56448
1100.680, 32.01785
1101.163, 26.98389
1101.645, 18.71048
1102.127, 17.34933
1102.609, 22.96625
1103.091, 26.48355
1103.573, 23.59201
1104.055, 18.83585
1104.537, 15.24548
1105.020, 12.26495
1105.502, 9.427704
1105.984, 6.876587
1106.466, 3.537781
1106.948, 1.030396
1107.430, 4.186920
1107.912, 13.45349
1108.394, 19.19730
1108.876, 13.29462
1109.359, 9.406738
1109.841, 16.98157
1110.323, 23.73730
1110.805, 18.44135
1111.287, 10.07901
1111.769, 11.51361
1112.251, 20.84189
1112.733, 24.62784
1113.215, 19.96896
1113.698, 13.90527
1114.180, 1.477661
1114.662, 3.963715
1115.144, 3.442139
1115.626, 14.94849
1116.108, 27.69312
1116.590, 37.61682
1117.072, 36.01010
1117.555, 22.79126
1118.037, 13.79800
1118.519, 9.318237
1119.001, 8.023834
1119.483, 10.34698
1119.965, 12.03714
1120.447, 11.33167
1120.929, 9.118347
1121.411, 5.941223
1121.894, 3.091492
1122.376, 4.980927
1122.858, 10.37183
1123.340, 12.25250
1123.822, 11.17642
1124.304, 12.45023
1124.786, 16.80490
1125.268, 19.51215
1125.750, 17.74231
1126.233, 15.68546
1126.715, 20.08057
1127.197, 25.23822
1127.679, 22.59802
1128.161, 15.66983
1128.643, 7.995270
1129.125, 1.679291
1129.607, 0.9492800
1130.090, 6.285126
1130.572, 10.94281
1131.054, 10.61832
1131.536, 10.48395
1132.018, 14.63696
1132.500, 18.44958
1132.982, 18.14328
1133.464, 15.95728
1133.947, 15.26080
1134.429, 15.71899
1134.911, 13.96304
1135.393, 8.250885
1135.875, 4.952606
1136.357, 6.609375
1136.839, 7.660858
1137.321, 5.894867
1137.803, 5.268707
1138.286, 7.993317
1138.768, 13.05255
1139.250, 19.95493
1139.732, 27.81097
1140.214, 27.48880
1140.696, 17.69260
1141.178, 8.923889
1141.660, 1.543701
1142.142, 0.6814580
1142.625, 3.743744
1143.107, 8.702637
1143.589, 9.340179
1144.071, 8.301910
1144.553, 11.23499
1145.035, 15.90668
1145.517, 13.45138
1145.999, 7.155731
1146.482, 9.640289
1146.964, 19.41144
1147.446, 22.14041
1147.928, 12.98703
1148.410, 4.120667
1148.892, 5.386566
1149.374, 9.115479
1149.856, 9.329071
1150.339, 7.950562
1150.821, 4.975067
1151.303, 2.876068
1151.785, 7.670197
1152.267, 16.91769
1152.749, 17.76880
1153.231, 3.781097
1153.713, 5.263916
1154.195, 2.371887
1154.677, 2.349579
1155.160, 9.045715
1155.642, 13.21878
1156.124, 11.19495
1156.606, 6.138000
1157.088, 1.790588
1157.570, 1.681305
1158.052, 4.054932
1158.534, 6.034973
1159.017, 2.646301
1159.499, 7.828735
1159.981, 14.38058
1160.463, 13.33273
1160.945, 11.01746
1161.427, 12.04047
1161.909, 14.49048
1162.391, 15.66836
1162.874, 15.42386
1163.356, 12.23587
1163.838, 7.373627
1164.320, 4.567566
1164.802, 4.315552
1165.284, 7.422791
1165.766, 13.49731
1166.248, 16.82120
1166.730, 11.65814
1167.213, 7.516327
1167.695, 14.66409
1168.177, 23.79532
1168.659, 27.43906
1169.141, 27.43991
1169.623, 26.20483
1170.105, 24.03290
1170.587, 20.21832
1171.069, 14.19684
1171.552, 10.28671
1172.034, 10.37219
1172.516, 10.58740
1172.998, 11.15698
1173.480, 11.49774
1173.962, 10.33670
1174.444, 10.56281
1174.926, 16.41312
1175.409, 25.13171
1175.891, 26.83981
1176.373, 21.09665
1176.855, 13.10483
1177.337, 2.647095
1177.819, 0.5912170
1178.301, 5.079376
1178.783, 14.62915
1179.266, 25.64462
1179.748, 32.46201
1180.230, 27.27798
1180.712, 17.56439
1181.194, 15.50900
1181.676, 17.32578
1182.158, 16.90143
1182.640, 14.98004
1183.122, 13.70407
1183.604, 13.59702
1184.087, 15.44623
1184.569, 20.24542
1185.051, 21.42184
1185.533, 10.37939
1186.015, 2.725342
1186.497, 8.562164
1186.979, 16.27295
1187.461, 18.07135
1187.944, 16.13742
1188.426, 13.85193
1188.908, 11.12512
1189.390, 6.877472
1189.872, 0.4267270
1190.354, 3.692291
1190.836, 2.339264
1191.318, 1.053375
1191.801, 6.491486
1192.283, 8.978394
1192.765, 6.533356
1193.247, 3.425232
1193.729, 5.200256
1194.211, 8.820526
1194.693, 4.811462
1195.175, 1.086060
1195.657, 3.934570
1196.140, 15.38599
1196.622, 18.75601
1197.104, 12.79764
1197.586, 6.660217
1198.068, 4.061859
1198.550, 5.003479
1199.032, 14.14694
1199.514, 20.77676
1199.996, 14.84314
1200.479, 8.079376
1200.961, 10.15344
1201.443, 17.10626
1201.925, 24.04306
1202.407, 29.99115
1202.889, 31.01874
1203.371, 24.87436
1203.853, 21.29825
1204.336, 21.76962
1204.818, 18.51550
1205.300, 7.776825
1205.782, 2.886414
1206.264, 11.99756
1206.746, 23.62137
1207.228, 23.91855
1207.710, 17.05023
1208.193, 11.23749
1208.675, 7.595612
1209.157, 12.21066
1209.639, 21.34180
1210.121, 23.41190
1210.603, 16.69342
1211.085, 9.162659
1211.567, 3.544098
1212.049, 1.985107
1212.531, 11.97235
1213.014, 18.40506
1213.496, 7.179626
1213.978, 2.774628
1214.460, 7.101868
1214.942, 22.13419
1215.424, 21.34000
1215.906, 9.502472
1216.388, 7.224426
1216.871, 16.95724
1217.353, 20.59018
1217.835, 15.98019
1218.317, 15.07877
1218.799, 20.36359
1219.281, 23.34622
1219.763, 20.41324
1220.245, 15.32999
1220.728, 11.32794
1221.210, 8.210480
1221.692, 5.031982
1222.174, 2.687653
1222.656, 2.504700
1223.138, 5.211090
1223.620, 8.628021
1224.102, 11.98230
1224.584, 14.22076
1225.067, 15.03036
1225.549, 14.35092
1226.031, 11.30310
1226.513, 8.421600
1226.995, 4.220642
1227.477, 3.586029
1227.959, 14.92581
1228.441, 23.96518
1228.923, 17.56149
1229.406, 4.567963
1229.888, 7.5745001E-02
1230.370, 0.0000000E+00




