128.9308, 0.0000000E+00
129.4129, 3.589508
129.8950, 19.97726
130.3772, 38.60251
130.8593, 58.95496
131.3414, 77.91629
131.8235, 82.99866
132.3056, 71.13028
132.7877, 57.21408
133.2699, 60.35938
133.7520, 81.34067
134.2341, 101.0919
134.7162, 113.1358
135.1983, 117.5590
135.6804, 113.3167
136.1626, 101.7611
136.6447, 81.86877
137.1268, 71.89276
137.6089, 74.31366
138.0910, 81.79666
138.5731, 93.57861
139.0553, 113.7050
139.5374, 120.5367
140.0195, 109.9522
140.5016, 86.02890
140.9837, 64.62033
141.4658, 45.79700
141.9480, 29.03769
142.4301, 12.81775
142.9122, 8.231110
143.3943, 16.77264
143.8764, 5.925903
144.3585, 23.64377
144.8407, 43.81012
145.3228, 51.10410
145.8049, 51.40735
146.2870, 50.05246
146.7691, 48.54730
147.2512, 43.35196
147.7334, 31.15579
148.2155, 7.898590
148.6976, 4.449951
149.1797, 1.752869
149.6618, 16.69638
150.1439, 27.33691
150.6261, 29.35159
151.1082, 30.81836
151.5903, 33.61011
152.0724, 37.99646
152.5545, 43.21878
153.0366, 48.52982
153.5188, 54.64972
154.0009, 62.95923
154.4830, 82.53336
154.9651, 97.82507
155.4472, 101.6810
155.9293, 86.15268
156.4115, 69.58966
156.8936, 52.17691
157.3757, 35.63626
157.8578, 25.51886
158.3399, 28.17700
158.8221, 35.08841
159.3042, 40.70303
159.7863, 42.60556
160.2684, 44.58344
160.7505, 47.65231
161.2326, 50.73074
161.7148, 52.93542
162.1969, 54.76483
162.6790, 54.96350
163.1611, 52.32101
163.6432, 42.11096
164.1253, 32.36609
164.6075, 28.67194
165.0896, 31.27017
165.5717, 32.52283
166.0538, 25.01428
166.5359, 14.04004
167.0180, 7.136871
167.5002, 7.820740
167.9823, 13.40900
168.4644, 22.39957
168.9465, 34.87643
169.4286, 49.41193
169.9107, 71.34766
170.3929, 94.78143
170.8750, 107.8179
171.3571, 95.22809
171.8392, 72.94989
172.3213, 57.67218
172.8034, 52.16907
173.2856, 51.91608
173.7677, 56.01828
174.2498, 62.90384
174.7319, 67.13766
175.2140, 64.27744
175.6961, 56.98984
176.1783, 48.39804
176.6604, 37.31155
177.1425, 28.43463
177.6246, 30.22037
178.1067, 41.13437
178.5888, 51.30188
179.0710, 53.36838
179.5531, 49.35010
180.0352, 43.23685
180.5173, 35.14532
180.9994, 26.31848
181.4815, 17.06537
181.9637, 7.464294
182.4458, 2.618530
182.9279, 11.89551
183.4100, 30.91379
183.8921, 42.67050
184.3742, 37.29700
184.8564, 23.86774
185.3385, 25.52350
185.8206, 42.74213
186.3027, 62.65765
186.7848, 72.65662
187.2669, 74.38101
187.7491, 72.52130
188.2312, 66.06143
188.7133, 57.02930
189.1954, 55.50119
189.6775, 63.49023
190.1596, 69.68341
190.6418, 54.38269
191.1239, 18.49411
191.6060, 8.701599
192.0881, 11.22980
192.5702, 7.714020
193.0524, 21.87259
193.5345, 31.07901
194.0166, 36.27051
194.4987, 37.01605
194.9808, 32.97040
195.4629, 30.17075
195.9451, 32.30960
196.4272, 39.15836
196.9093, 44.16864
197.3914, 45.97824
197.8735, 47.59192
198.3556, 55.77167
198.8378, 71.53268
199.3199, 87.67068
199.8020, 98.85178
200.2841, 104.3083
200.7662, 115.6094
201.2483, 135.6525
201.7305, 160.2667
202.2126, 177.1705
202.6947, 185.1967
203.1768, 190.7648
203.6589, 197.1470
204.1410, 204.2922
204.6232, 212.7327
205.1053, 222.6168
205.5874, 233.9442
206.0695, 246.3942
206.5516, 259.3680
207.0337, 274.9279
207.5159, 294.2200
207.9980, 316.7359
208.4801, 343.5804
208.9622, 374.7464
209.4443, 410.3323
209.9264, 450.8451
210.4086, 496.3734
210.8907, 546.8808
211.3728, 602.1993
211.8549, 663.6542
212.3370, 727.0444
212.8191, 792.6476
213.3013, 859.8638
213.7834, 928.0400
214.2655, 996.0585
214.7476, 1067.143
215.2297, 1149.635
215.7118, 1260.661
216.1940, 1338.859
216.6761, 1379.250
217.1582, 1381.282
217.6403, 1315.514
218.1224, 1156.883
218.6045, 965.1536
219.0867, 792.6688
219.5688, 637.7728
220.0509, 509.6130
220.5330, 415.6283
221.0151, 355.0403
221.4972, 306.8846
221.9794, 275.8389
222.4615, 251.5146
222.9436, 221.5709
223.4257, 180.5417
223.9078, 144.8131
224.3899, 118.9406
224.8721, 103.1144
225.3542, 89.72906
225.8363, 77.45245
226.3184, 68.74512
226.8005, 68.21637
227.2827, 84.26035
227.7648, 92.03760
228.2469, 81.41077
228.7290, 48.16983
229.2111, 30.65628
229.6932, 37.66843
230.1754, 53.48083
230.6575, 56.83624
231.1396, 39.98404
231.6217, 24.29010
232.1038, 15.64746
232.5859, 15.18472
233.0681, 15.82516
233.5502, 17.79523
234.0323, 20.69525
234.5144, 24.24918
234.9965, 29.65991
235.4786, 33.66418
235.9608, 35.44623
236.4429, 35.08316
236.9250, 31.79138
237.4071, 23.26517
237.8892, 13.26959
238.3713, 8.182007
238.8535, 11.25293
239.3356, 13.77063
239.8177, 12.48874
240.2998, 5.761597
240.7819, 1.526154
241.2640, 2.7588001E-02
241.7462, 0.7978520
242.2283, 3.678894
242.7104, 11.91580
243.1925, 16.86270
243.6746, 14.63678
244.1567, 1.976227
244.6389, 6.718201
245.1210, 10.36423
245.6031, 10.70859
246.0852, 10.68619
246.5673, 10.41254
247.0494, 9.558655
247.5316, 7.703705
248.0137, 4.066132
248.4958, 2.275330
248.9779, 3.601318
249.4600, 6.344391
249.9421, 6.375427
250.4243, 1.508789
250.9064, 3.165344
251.3885, 6.081207
251.8706, 7.189758
252.3527, 6.420624
252.8348, 2.584259
253.3170, 2.387390
253.7991, 4.731171
254.2812, 3.605591
254.7633, 1.412292
255.2454, 1.159943
255.7275, 4.305481
256.2097, 6.982605
256.6918, 8.868622
257.1739, 10.48254
257.6560, 13.54306
258.1381, 20.47534
258.6202, 23.77170
259.1024, 18.88467
259.5845, 2.226288
260.0666, 7.244537
260.5487, 7.594208
261.0308, 2.195892
261.5129, 3.346924
261.9951, 9.635651
262.4772, 14.52316
262.9593, 16.81891
263.4414, 15.92972
263.9235, 15.20175
264.4056, 14.27124
264.8878, 13.83691
265.3699, 15.34164
265.8520, 19.43179
266.3341, 23.66644
266.8162, 27.61191
267.2983, 31.59744
267.7805, 32.89374
268.2626, 31.12457
268.7447, 27.05490
269.2268, 21.14249
269.7089, 12.30826
270.1910, 5.519379
270.6732, 2.834534
271.1553, 4.567322
271.6374, 7.988159
272.1195, 13.77914
272.6016, 20.26877
273.0837, 23.95609
273.5659, 24.03729
274.0480, 25.53522
274.5301, 31.80612
275.0122, 43.14594
275.4943, 48.72836
275.9764, 46.62384
276.4586, 42.39288
276.9407, 44.93860
277.4228, 54.95865
277.9049, 65.38013
278.3870, 74.00888
278.8691, 80.82291
279.3513, 84.84274
279.8334, 85.45590
280.3155, 84.84967
280.7976, 86.31613
281.2798, 89.97189
281.7619, 92.70163
282.2440, 92.40869
282.7261, 89.76324
283.2082, 90.55582
283.6903, 95.55109
284.1725, 101.1704
284.6546, 102.4127
285.1367, 99.44894
285.6188, 97.05121
286.1009, 97.87158
286.5830, 100.7162
287.0652, 100.0212
287.5473, 95.42014
288.0294, 89.52701
288.5115, 85.45453
288.9936, 82.88669
289.4757, 79.42554
289.9579, 74.11569
290.4400, 67.36292
290.9221, 58.44925
291.4042, 46.94958
291.8863, 38.62866
292.3684, 42.99393
292.8506, 56.78189
293.3327, 65.67282
293.8148, 62.51721
294.2969, 53.27225
294.7790, 49.81433
295.2611, 52.14838
295.7433, 55.49039
296.2254, 57.68182
296.7075, 57.78903
297.1896, 52.59586
297.6717, 36.52628
298.1538, 18.61526
298.6360, 13.67740
299.1181, 20.96451
299.6002, 31.51593
300.0823, 39.63318
300.5644, 45.60489
301.0465, 49.54523
301.5287, 51.16769
302.0108, 51.07834
302.4929, 48.97220
302.9750, 45.38211
303.4571, 42.03131
303.9392, 38.16479
304.4214, 35.70282
304.9035, 37.72888
305.3856, 47.02563
305.8677, 57.86591
306.3498, 66.19571
306.8319, 71.70660
307.3141, 74.04776
307.7962, 70.53760
308.2783, 65.43713
308.7604, 63.01062
309.2425, 65.57407
309.7246, 67.24200
310.2068, 60.07208
310.6889, 48.45462
311.1710, 43.72421
311.6531, 60.26956
312.1352, 80.86484
312.6173, 90.91129
313.0995, 83.28183
313.5816, 78.83591
314.0637, 90.97253
314.5458, 112.7823
315.0279, 131.3886
315.5100, 140.4691
315.9922, 146.1015
316.4743, 150.5576
316.9564, 153.2255
317.4385, 158.2219
317.9206, 168.0965
318.4027, 180.9377
318.8849, 193.6666
319.3670, 206.1829
319.8491, 217.4621
320.3312, 226.5976
320.8133, 233.1496
321.2954, 240.1274
321.7776, 253.1465
322.2597, 265.0259
322.7418, 268.1172
323.2239, 256.3889
323.7060, 240.7621
324.1881, 221.9334
324.6703, 199.5563
325.1524, 180.2340
325.6345, 165.1166
326.1166, 152.9962
326.5987, 142.8419
327.0808, 135.4995
327.5630, 129.6808
328.0451, 126.1344
328.5272, 124.6647
329.0093, 121.1466
329.4914, 114.0219
329.9735, 106.3506
330.4557, 100.1318
330.9378, 95.90372
331.4199, 92.04749
331.9020, 87.31403
332.3841, 82.65125
332.8662, 83.72571
333.3484, 95.58603
333.8305, 105.4088
334.3126, 104.8426
334.7947, 88.39136
335.2768, 79.39481
335.7589, 82.09259
336.2411, 91.18497
336.7232, 92.77414
337.2053, 84.60187
337.6874, 75.48795
338.1695, 68.45245
338.6516, 63.20020
339.1338, 64.07495
339.6159, 73.05969
340.0980, 85.15784
340.5801, 92.79803
341.0622, 96.11072
341.5443, 94.14386
342.0265, 83.16672
342.5086, 64.85739
342.9907, 55.10031
343.4728, 55.25488
343.9549, 58.97055
344.4370, 59.48804
344.9192, 56.91959
345.4013, 51.92798
345.8834, 42.98611
346.3655, 32.33496
346.8476, 26.07883
347.3297, 24.26367
347.8119, 25.67395
348.2940, 33.45724
348.7761, 44.52078
349.2582, 47.68234
349.7403, 34.81393
350.2225, 16.84106
350.7046, 11.68964
351.1867, 17.96640
351.6688, 24.50955
352.1509, 21.79498
352.6331, 14.58746
353.1152, 10.09308
353.5973, 10.49060
354.0794, 12.88815
354.5615, 17.05151
355.0436, 21.59329
355.5258, 22.29547
356.0079, 10.73026
356.4900, 2.299835
356.9721, 6.008118
357.4542, 4.352325
357.9363, 14.13416
358.4185, 13.49146
358.9006, 7.256073
359.3827, 3.629089
359.8648, 8.276550
360.3469, 14.41306
360.8290, 18.71442
361.3112, 20.76273
361.7933, 21.95126
362.2754, 22.58337
362.7575, 22.65778
363.2396, 22.21524
363.7217, 20.00400
364.2039, 18.43314
364.6860, 19.81967
365.1681, 24.24283
365.6502, 25.26755
366.1323, 17.41409
366.6144, 8.814026
367.0966, 5.103882
367.5787, 13.52274
368.0608, 18.14661
368.5429, 15.49246
369.0250, 7.293793
369.5071, 4.207031
369.9893, 9.738159
370.4714, 16.40201
370.9535, 20.87567
371.4356, 23.33438
371.9177, 22.86334
372.3998, 18.11981
372.8820, 11.09567
373.3641, 5.929840
373.8462, 2.334259
374.3283, 1.392700
374.8104, 4.470367
375.2925, 12.12476
375.7747, 17.25336
376.2568, 19.20010
376.7389, 20.00470
377.2210, 23.57901
377.7031, 30.39099
378.1852, 32.99673
378.6674, 27.49258
379.1495, 16.05972
379.6316, 7.410278
380.1137, 1.667572
380.5958, 1.733612
381.0779, 1.966431
381.5601, 0.2081600
382.0422, 0.8789670
382.5243, 2.034912
383.0064, 5.790497
383.4885, 4.592163
383.9706, 1.078705
384.4528, 7.341400
384.9349, 13.01495
385.4170, 17.21902
385.8991, 17.88934
386.3812, 13.64438
386.8633, 9.381653
387.3455, 11.31201
387.8276, 16.80206
388.3097, 19.84030
388.7918, 15.25989
389.2739, 8.337708
389.7560, 2.730347
390.2382, 1.339111
390.7203, 3.327240
391.2024, 1.203979
391.6845, 2.571167
392.1666, 5.188568
392.6487, 4.361694
393.1309, 3.459869
393.6130, 3.989319
394.0951, 5.832153
394.5772, 7.348389
395.0593, 7.718872
395.5414, 7.885590
396.0236, 8.438293
396.5057, 10.94104
396.9878, 12.07233
397.4699, 10.50085
397.9520, 7.190979
398.4341, 5.178955
398.9163, 4.896973
399.3984, 5.485016
399.8805, 6.995911
400.3626, 10.47305
400.8447, 11.56586
401.3268, 8.689850
401.8090, 4.599396
402.2911, 3.273376
402.7732, 5.630035
403.2553, 8.528656
403.7374, 12.00534
404.2195, 15.82358
404.7017, 14.93866
405.1838, 8.034637
405.6659, 6.9458000E-02
406.1480, 5.902924
406.6301, 9.534088
407.1122, 8.669678
407.5944, 1.184845
408.0765, 9.224579
408.5586, 12.90240
409.0407, 9.987488
409.5228, 6.462921
410.0049, 6.561066
410.4871, 9.147430
410.9692, 11.17654
411.4513, 11.66742
411.9334, 12.13538
412.4155, 17.32819
412.8976, 25.03198
413.3798, 27.81201
413.8619, 16.49008
414.3440, 2.301056
414.8261, 3.168427
415.3082, 0.2569270
415.7903, 4.661469
416.2725, 7.095001
416.7546, 9.452057
417.2367, 14.73126
417.7188, 29.44034
418.2009, 40.97937
418.6830, 42.56006
419.1652, 35.89282
419.6473, 27.18564
420.1294, 13.39841
420.6115, 1.845276
421.0937, 3.114960
421.5758, 2.498474
422.0579, 7.606262
422.5400, 9.567902
423.0221, 10.42493
423.5042, 13.68671
423.9864, 26.81186
424.4685, 33.96985
424.9506, 28.74039
425.4327, 9.597626
425.9148, 0.9269100
426.3969, 1.036011
426.8791, 7.193512
427.3612, 10.41873
427.8433, 9.585266
428.3254, 9.240814
428.8075, 9.701782
429.2896, 11.20255
429.7718, 15.45862
430.2539, 23.33093
430.7360, 29.49893
431.2181, 29.95905
431.7002, 25.11874
432.1823, 20.71957
432.6645, 16.92630
433.1466, 13.98737
433.6287, 12.22150
434.1108, 11.61472
434.5929, 12.18771
435.0750, 14.66840
435.5572, 18.02979
436.0393, 20.73312
436.5214, 22.76782
437.0035, 23.91281
437.4856, 24.96259
437.9677, 24.72247
438.4499, 20.77740
438.9320, 9.528473
439.4141, 0.2268370
439.8962, 1.873657
440.3783, 2.712494
440.8604, 8.737335
441.3426, 17.34317
441.8247, 25.04587
442.3068, 29.04916
442.7889, 28.31433
443.2710, 27.50455
443.7531, 29.64673
444.2353, 31.64688
444.7174, 30.11569
445.1995, 18.77657
445.6816, 10.23801
446.1637, 7.017288
446.6458, 8.767410
447.1280, 12.07440
447.6101, 19.58838
448.0922, 25.67267
448.5743, 26.24699
449.0564, 17.34230
449.5385, 15.18811
450.0207, 23.39806
450.5028, 35.51056
450.9849, 38.31573
451.4670, 30.13031
451.9491, 22.03969
452.4312, 17.45105
452.9134, 16.54494
453.3955, 21.10173
453.8776, 32.09541
454.3597, 41.53307
454.8418, 39.26749
455.3239, 28.05640
455.8061, 19.33295
456.2882, 15.61488
456.7703, 15.47810
457.2524, 18.54349
457.7345, 23.95740
458.2166, 28.29956
458.6988, 27.66040
459.1809, 25.78882
459.6630, 27.33928
460.1451, 33.32263
460.6272, 38.80737
461.1093, 41.41318
461.5915, 41.44987
462.0736, 39.21880
462.5557, 33.29628
463.0378, 26.62750
463.5199, 18.45180
464.0020, 9.235291
464.4842, 4.406235
464.9663, 8.965424
465.4484, 16.29720
465.9305, 22.82384
466.4126, 32.17555
466.8947, 33.61041
467.3769, 21.51852
467.8590, 3.993500
468.3411, 6.260971
468.8232, 8.606537
469.3053, 4.018326
469.7874, 11.85295
470.2696, 37.53300
470.7517, 42.28638
471.2338, 20.39325
471.7159, 4.766205
472.1980, 11.82324
472.6801, 1.447342
473.1623, 8.060379
473.6444, 14.00121
474.1265, 17.84407
474.6086, 22.12253
475.0907, 26.69775
475.5728, 30.71561
476.0550, 35.14363
476.5371, 38.23511
477.0192, 35.85559
477.5013, 28.44397
477.9834, 21.03905
478.4655, 17.56964
478.9477, 17.11632
479.4298, 18.97212
479.9119, 24.30287
480.3940, 29.35115
480.8761, 31.65793
481.3582, 32.05426
481.8404, 32.89441
482.3225, 35.71823
482.8046, 38.52016
483.2867, 40.74722
483.7688, 42.69041
484.2509, 42.35085
484.7331, 36.90588
485.2152, 30.31923
485.6973, 26.30801
486.1794, 26.70660
486.6615, 26.41867
487.1436, 23.82162
487.6258, 19.93970
488.1079, 20.44232
488.5900, 27.21535
489.0721, 33.14626
489.5542, 33.13206
490.0363, 27.09702
490.5185, 25.27310
491.0006, 28.92822
491.4827, 33.48479
491.9648, 30.96826
492.4470, 23.13579
492.9291, 20.11476
493.4112, 28.66516
493.8933, 41.07339
494.3754, 45.42770
494.8575, 42.53267
495.3397, 37.20688
495.8218, 30.31114
496.3039, 23.70129
496.7860, 19.26320
497.2681, 16.92361
497.7502, 17.05554
498.2324, 23.73238
498.7145, 32.10475
499.1966, 35.90552
499.6787, 29.36662
500.1608, 21.86900
500.6429, 14.87880
501.1251, 8.676865
501.6072, 6.340912
502.0893, 11.42723
502.5714, 17.41522
503.0535, 21.44783
503.5356, 23.45544
504.0178, 23.50223
504.4999, 20.83945
504.9820, 16.91989
505.4641, 13.54926
505.9462, 10.51932
506.4283, 9.418533
506.9105, 12.08569
507.3926, 16.73140
507.8747, 14.67796
508.3568, 5.492844
508.8389, 2.532150
509.3210, 1.885422
509.8032, 4.594147
510.2853, 8.994003
510.7674, 10.07638
511.2495, 10.13924
511.7316, 12.26419
512.2137, 15.07661
512.6959, 15.76820
513.1780, 9.045837
513.6601, 3.255539
514.1422, 6.020599
514.6243, 15.86053
515.1064, 22.41245
515.5886, 17.91840
516.0707, 11.47424
516.5528, 8.632523
517.0349, 11.28952
517.5170, 14.99951
517.9991, 22.65977
518.4813, 29.84166
518.9634, 30.22354
519.4455, 17.67018
519.9276, 9.061630
520.4097, 9.513962
520.8918, 17.16125
521.3740, 19.17290
521.8561, 14.12390
522.3382, 8.146790
522.8203, 5.096191
523.3024, 4.842224
523.7845, 5.072464
524.2667, 5.636841
524.7488, 6.814529
525.2309, 10.36005
525.7130, 15.10091
526.1951, 16.30156
526.6772, 10.13710
527.1594, 3.025909
527.6415, 2.263214
528.1236, 6.576279
528.6057, 11.90570
529.0878, 17.30658
529.5699, 21.52180
530.0521, 23.66226
530.5342, 24.55530
531.0163, 24.90869
531.4984, 23.69357
531.9805, 22.50150
532.4626, 23.01250
532.9448, 33.25200
533.4269, 35.51579
533.9090, 22.40761
534.3911, 0.5376590
534.8732, 11.40923
535.3553, 6.345703
535.8375, 2.313171
536.3196, 10.46155
536.8017, 18.40915
537.2838, 23.18947
537.7659, 24.33456
538.2480, 23.99162
538.7302, 24.90157
539.2123, 26.65573
539.6944, 26.05389
540.1765, 21.53581
540.6586, 15.95964
541.1407, 13.53889
541.6229, 13.51486
542.1050, 13.11391
542.5871, 8.870300
543.0692, 4.872253
543.5513, 5.873978
544.0334, 12.26210
544.5156, 17.70351
544.9977, 15.46576
545.4798, 12.92345
545.9619, 16.26807
546.4440, 37.23846
546.9261, 48.68680
547.4083, 37.54033
547.8904, 15.88284
548.3725, 5.171921
548.8546, 10.71916
549.3367, 18.65463
549.8188, 27.73415
550.3010, 37.23579
550.7831, 37.11929
551.2652, 24.77734
551.7473, 11.48106
552.2294, 5.953735
552.7115, 7.354462
553.1937, 7.064743
553.6758, 3.793152
554.1579, 1.362961
554.6400, 7.265045
555.1221, 18.16473
555.6042, 24.29958
556.0864, 18.97867
556.5685, 10.51730
557.0506, 5.302979
557.5327, 3.293030
558.0148, 4.487793
558.4969, 12.71941
558.9791, 21.69914
559.4612, 26.67384
559.9433, 26.52644
560.4254, 25.20305
560.9075, 22.53278
561.3896, 19.41660
561.8718, 16.30840
562.3539, 9.769730
562.8360, 9.635468
563.3181, 20.02061
563.8002, 35.61591
564.2823, 43.58499
564.7645, 42.77870
565.2466, 39.08405
565.7287, 33.68399
566.2108, 27.21179
566.6929, 22.70389
567.1750, 20.48239
567.6572, 19.85190
568.1393, 20.21173
568.6214, 21.48766
569.1035, 24.41669
569.5856, 30.13048
570.0677, 33.39758
570.5499, 26.72015
571.0320, 15.40797
571.5141, 7.813782
571.9962, 8.154526
572.4783, 11.66209
572.9604, 18.96014
573.4426, 28.70863
573.9247, 34.45563
574.4068, 29.31506
574.8889, 25.33969
575.3710, 28.62245
575.8531, 42.06230
576.3353, 46.63690
576.8174, 38.42937
577.2995, 27.10144
577.7816, 21.97646
578.2637, 23.68063
578.7458, 25.65753
579.2280, 27.06122
579.7101, 27.58649
580.1922, 26.43393
580.6743, 24.26099
581.1564, 22.76117
581.6385, 22.15898
582.1207, 22.97032
582.6028, 27.95300
583.0849, 36.18350
583.5670, 40.80391
584.0491, 33.38937
584.5313, 23.53404
585.0134, 19.25363
585.4955, 23.83817
585.9776, 27.17207
586.4597, 24.81595
586.9418, 20.67499
587.4240, 19.25671
587.9061, 22.77380
588.3882, 25.85318
588.8703, 28.85818
589.3524, 31.10440
589.8345, 29.69884
590.3167, 24.42841
590.7988, 17.56259
591.2809, 8.593552
591.7630, 1.350952
592.2451, 5.619431
592.7272, 4.751389
593.2094, 0.6595310
593.6915, 6.254761
594.1736, 13.98752
594.6557, 19.32458
595.1378, 21.37062
595.6199, 22.18985
596.1021, 24.07295
596.5842, 25.47815
597.0663, 24.19998
597.5485, 15.49857
598.0306, 8.319458
598.5127, 5.875305
598.9948, 7.126816
599.4769, 9.108612
599.9590, 14.74501
600.4412, 17.17554
600.9233, 11.84018
601.4054, 2.441147
601.8875, 4.171432
602.3696, 11.76765
602.8517, 27.71866
603.3339, 24.57207
603.8160, 4.371429
604.2981, 4.191086
604.7802, 4.170578
605.2623, 17.52574
605.7444, 20.98726
606.2266, 17.08652
606.7087, 12.42232
607.1908, 8.449753
607.6729, 5.630356
608.1550, 4.210373
608.6371, 4.203659
609.1193, 5.604584
609.6014, 10.45726
610.0835, 14.96709
610.5656, 17.57838
611.0477, 18.24164
611.5298, 16.28934
612.0120, 8.381149
612.4941, 1.226181
612.9762, 0.3378600
613.4583, 5.369736
613.9404, 11.24294
614.4225, 18.32721
614.9047, 23.10884
615.3868, 17.68568
615.8689, 3.103622
616.3510, 5.965302
616.8331, 3.920090
617.3152, 4.057205
617.7974, 12.85995
618.2795, 21.39030
618.7616, 25.91702
619.2437, 19.98895
619.7258, 12.52962
620.2079, 10.54513
620.6901, 14.39507
621.1722, 18.47256
621.6543, 23.35991
622.1364, 26.07542
622.6185, 23.97394
623.1006, 12.68954
623.5828, 6.292770
624.0649, 7.122101
624.5470, 10.69534
625.0291, 11.32326
625.5112, 8.139771
625.9933, 7.022537
626.4755, 10.02007
626.9576, 14.31558
627.4397, 12.70947
627.9218, 6.124542
628.4039, 1.603668
628.8860, 4.090103
629.3682, 9.875656
629.8503, 14.37155
630.3324, 17.63518
630.8145, 20.35397
631.2966, 22.16779
631.7787, 24.06841
632.2609, 27.39920
632.7430, 33.46187
633.2251, 36.43239
633.7072, 34.34808
634.1893, 29.15170
634.6714, 22.34195
635.1536, 11.19975
635.6357, 2.446426
636.1178, 3.861847
636.5999, 7.069214
637.0820, 5.415924
637.5641, 1.219345
638.0463, 10.37355
638.5284, 23.58978
639.0105, 36.86470
639.4926, 41.71387
639.9747, 39.07773
640.4568, 34.38794
640.9390, 29.45065
641.4211, 24.92099
641.9032, 20.80679
642.3853, 17.12653
642.8674, 16.07196
643.3495, 22.39157
643.8317, 29.05865
644.3138, 31.27223
644.7959, 27.12573
645.2780, 20.51944
645.7601, 8.263092
646.2422, 3.637054
646.7244, 7.444794
647.2065, 1.543594
647.6886, 4.318390
648.1707, 8.503952
648.6528, 11.66890
649.1349, 15.95030
649.6171, 20.71565
650.0992, 22.73027
650.5813, 18.23265
651.0634, 12.36610
651.5455, 11.39120
652.0276, 14.48105
652.5098, 17.72784
652.9919, 21.07033
653.4740, 22.35327
653.9561, 19.31343
654.4382, 10.73521
654.9203, 3.998459
655.4025, 1.796112
655.8846, 4.034363
656.3667, 8.3968997E-02
656.8488, 14.14790
657.3309, 23.51443
657.8130, 26.69685
658.2952, 26.99146
658.7773, 30.17207
659.2594, 35.45993
659.7415, 34.91092
660.2236, 24.02184
660.7057, 11.16690
661.1879, 9.988602
661.6700, 17.23694
662.1521, 23.58469
662.6342, 24.44052
663.1163, 24.05052
663.5984, 25.98697
664.0806, 29.75220
664.5627, 30.79437
665.0448, 25.07355
665.5269, 19.01706
666.0090, 15.01112
666.4911, 13.05711
666.9733, 13.98367
667.4554, 19.58942
667.9375, 24.50885
668.4196, 23.31386
668.9017, 16.24788
669.3839, 10.92149
669.8660, 7.819443
670.3481, 7.443466
670.8302, 13.46811
671.3123, 22.49680
671.7944, 26.38113
672.2766, 19.24727
672.7587, 11.76630
673.2408, 12.05545
673.7229, 16.85274
674.2050, 19.35243
674.6871, 16.51297
675.1693, 13.82777
675.6514, 12.41113
676.1335, 12.05246
676.6156, 11.44376
677.0977, 9.755966
677.5798, 9.830063
678.0620, 14.62910
678.5441, 23.11185
679.0262, 22.20222
679.5083, 11.14758
679.9904, 2.955612
680.4725, 13.87161
680.9547, 32.98100
681.4368, 40.02110
681.9189, 31.64352
682.4010, 20.47636
682.8831, 11.88631
683.3652, 6.356491
683.8474, 4.795135
684.3295, 11.50894
684.8116, 15.67300
685.2937, 14.42455
685.7758, 10.36583
686.2579, 6.341370
686.7401, 1.404373
687.2222, 0.7786410
687.7043, 0.8962550
688.1864, 5.308411
688.6685, 10.86781
689.1506, 17.37770
689.6328, 21.68054
690.1149, 22.63364
690.5970, 20.41150
691.0791, 11.85394
691.5612, 1.029510
692.0433, 7.874298
692.5255, 3.667465
693.0076, 17.41862
693.4897, 22.77785
693.9718, 17.96761
694.4539, 13.08791
694.9360, 8.779388
695.4182, 6.297455
695.9003, 6.254578
696.3824, 9.628036
696.8645, 10.99594
697.3466, 9.712723
697.8287, 8.118576
698.3109, 9.363800
698.7930, 12.90584
699.2751, 14.62701
699.7572, 12.80548
700.2393, 10.89803
700.7214, 13.64650
701.2036, 18.37848
701.6857, 20.58531
702.1678, 15.52631
702.6499, 11.33368
703.1320, 11.73647
703.6141, 15.22049
704.0963, 17.85684
704.5784, 20.59947
705.0605, 21.18872
705.5426, 17.65697
706.0247, 11.20850
706.5068, 7.783127
706.9890, 7.579865
707.4711, 8.545029
707.9532, 10.27478
708.4353, 12.25647
708.9174, 11.94205
709.3995, 9.770691
709.8817, 10.17386
710.3638, 21.12550
710.8459, 32.79630
711.3280, 35.10950
711.8101, 25.86865
712.2922, 18.17575
712.7744, 16.21049
713.2565, 16.61348
713.7386, 17.33098
714.2207, 20.01657
714.7028, 19.04875
715.1849, 12.36943
715.6671, 5.595795
716.1492, 6.077667
716.6313, 13.09647
717.1134, 17.67741
717.5955, 17.59958
718.0776, 5.514343
718.5598, 19.85802
719.0419, 27.91063
719.5240, 30.01022
720.0061, 8.327515
720.4882, 17.35722
720.9703, 14.07922
721.4525, 10.29681
721.9346, 23.64996
722.4167, 5.428055
722.8988, 18.51010
723.3809, 19.09663
723.8630, 25.40244
724.3452, 19.32472
724.8273, 17.07411
725.3094, 27.21170
725.7915, 30.49033
726.2736, 22.98979
726.7557, 29.66281
727.2379, 11.01288
727.7200, 15.19254
728.2021, 30.12701
728.6842, 23.62335
729.1663, 30.52391
729.6484, 32.17764
730.1306, 9.985809
730.6127, 29.26474
731.0948, 30.60992
731.5769, 13.54050
732.0590, 31.40091
732.5411, 16.87331
733.0233, 13.90674
733.5054, 19.50134
733.9875, 18.84499
734.4696, 17.66560
734.9517, 22.18677
735.4338, 34.20694
735.9160, 45.33740
736.3981, 46.22568
736.8802, 40.97766
737.3623, 35.48132
737.8444, 30.95407
738.3266, 27.04793
738.8087, 23.42123
739.2908, 20.36172
739.7729, 18.48996
740.2551, 19.62619
740.7372, 18.35835
741.2193, 12.69757
741.7014, 5.458221
742.1835, 2.681122
742.6656, 4.421738
743.1478, 7.842178
743.6299, 13.29237
744.1120, 18.36526
744.5941, 17.77756
745.0762, 13.36282
745.5583, 10.85274
746.0405, 16.08125
746.5226, 21.18658
747.0047, 20.26498
747.4868, 14.70258
747.9689, 13.17123
748.4510, 22.50481
748.9332, 28.43471
749.4153, 25.10498
749.8974, 13.27554
750.3795, 5.428711
750.8616, 1.080826
751.3438, 1.129822
751.8259, 9.723251
752.3080, 22.41232
752.7901, 27.88947
753.2722, 25.57936
753.7543, 24.16307
754.2365, 36.65503
754.7186, 48.25586
755.2007, 43.44725
755.6828, 16.61316
756.1649, 1.981293
756.6470, 4.519836
757.1292, 6.0913000E-02
757.6113, 7.708618
758.0934, 20.95291
758.5755, 26.89874
759.0576, 24.14272
759.5397, 18.92758
760.0219, 18.75499
760.5040, 21.44647
760.9861, 19.72328
761.4682, 11.33844
761.9503, 5.233063
762.4324, 11.34610
762.9146, 22.48039
763.3967, 30.04602
763.8788, 28.92271
764.3609, 29.13615
764.8430, 35.47517
765.3251, 42.11475
765.8073, 41.72998
766.2894, 32.03558
766.7715, 24.26004
767.2536, 19.96481
767.7357, 18.26143
768.2178, 18.80638
768.7000, 20.92255
769.1821, 21.66878
769.6642, 19.35478
770.1463, 16.54930
770.6284, 14.60854
771.1105, 13.88423
771.5927, 15.05565
772.0748, 21.58739
772.5569, 26.26111
773.0390, 27.18988
773.5211, 25.16878
774.0032, 21.03552
774.4854, 13.08803
774.9675, 9.905685
775.4496, 16.12201
775.9317, 26.93265
776.4138, 30.20535
776.8959, 26.87666
777.3781, 22.18671
777.8602, 16.42113
778.3423, 12.43842
778.8244, 14.71092
779.3065, 21.40302
779.7886, 24.75073
780.2708, 18.43599
780.7529, 12.54909
781.2350, 10.67288
781.7171, 12.39078
782.1992, 13.01392
782.6813, 10.96820
783.1635, 10.97723
783.6456, 19.63908
784.1277, 31.39355
784.6098, 21.38385
785.0919, 7.403229
785.5740, 25.97864
786.0562, 3.619644
786.5383, 28.06488
787.0204, 42.11012
787.5025, 36.96965
787.9846, 31.26790
788.4667, 28.72853
788.9489, 26.72186
789.4310, 24.39041
789.9131, 21.77080
790.3952, 18.22664
790.8773, 13.37721
791.3594, 9.514313
791.8416, 8.428131
792.3237, 9.674271
792.8058, 12.63863
793.2879, 17.27341
793.7700, 21.61031
794.2521, 23.51173
794.7343, 25.06969
795.2164, 28.60085
795.6985, 35.52669
796.1806, 39.06853
796.6627, 36.95010
797.1448, 33.20892
797.6270, 30.34683
798.1091, 28.53969
798.5912, 25.99869
799.0733, 22.50281
799.5554, 19.27655
800.0375, 17.31720
800.5197, 16.53648
801.0018, 17.33119
801.4839, 20.05232
801.9660, 21.72845
802.4481, 19.01692
802.9302, 15.42596
803.4124, 14.13753
803.8945, 17.70526
804.3766, 18.85724
804.8587, 16.99802
805.3408, 13.69839
805.8229, 9.785599
806.3051, 5.274612
806.7872, 2.303955
807.2693, 0.9132390
807.7514, 1.954910
808.2335, 11.08362
808.7156, 21.54327
809.1978, 21.38289
809.6799, 4.044357
810.1620, 10.14024
810.6441, 10.53128
811.1262, 4.966766
811.6083, 1.359589
812.0905, 2.786499
812.5726, 0.9865720
813.0547, 12.25287
813.5368, 24.61264
814.0189, 29.31462
814.5010, 27.76598
814.9832, 30.10870
815.4653, 39.12564
815.9474, 44.54553
816.4295, 31.64561
816.9116, 11.83821
817.3937, 0.6087800
817.8759, 0.6526180
818.3580, 4.197128
818.8401, 10.74817
819.3222, 17.04962
819.8043, 19.90770
820.2864, 18.73186
820.7686, 16.54164
821.2507, 13.19083
821.7328, 10.16309
822.2149, 9.702057
822.6970, 11.09491
823.1791, 12.46916
823.6613, 13.18643
824.1434, 14.53230
824.6255, 17.91614
825.1076, 22.13271
825.5897, 25.78723
826.0718, 29.44257
826.5540, 31.20894
827.0361, 30.26114
827.5182, 28.41719
828.0003, 27.78551
828.4824, 28.35886
828.9645, 29.72816
829.4467, 32.38461
829.9288, 33.47339
830.4109, 26.58017
830.8930, 16.98749
831.3751, 13.21820
831.8572, 19.93707
832.3394, 27.06291
832.8215, 34.20352
833.3036, 38.22113
833.7857, 35.13893
834.2678, 20.47289
834.7499, 12.30074
835.2321, 13.36957
835.7142, 17.99429
836.1963, 21.03207
836.6784, 22.98323
837.1605, 26.57516
837.6426, 33.57507
838.1248, 36.37494
838.6069, 21.37735
839.0890, 2.545502
839.5711, 3.682556
840.0532, 15.03731
840.5353, 30.41417
841.0175, 42.65822
841.4996, 48.96130
841.9817, 43.43985
842.4638, 25.31094
842.9459, 15.48250
843.4280, 16.75873
843.9102, 21.46330
844.3923, 15.39828
844.8744, 4.424057
845.3565, 1.535400
845.8386, 0.2356570
846.3207, 4.913086
846.8029, 18.30048
847.2850, 31.19138
847.7671, 35.52370
848.2492, 26.78951
848.7313, 21.50183
849.2134, 20.00526
849.6956, 21.17104
850.1777, 25.89598
850.6598, 32.48531
851.1419, 34.05167
851.6240, 29.28249
852.1061, 24.69847
852.5883, 26.92253
853.0704, 30.60745
853.5525, 30.46950
854.0346, 23.88710
854.5167, 19.09468
854.9988, 16.16626
855.4810, 15.57419
855.9631, 19.08054
856.4452, 26.82266
856.9273, 28.11749
857.4094, 22.14482
857.8915, 17.47876
858.3737, 26.28804
858.8558, 38.53333
859.3379, 40.32773
859.8200, 29.38225
860.3021, 18.16177
860.7842, 5.383469
861.2664, 0.5302580
861.7485, 8.400070
862.2306, 35.38306
862.7127, 41.94151
863.1948, 23.41786
863.6769, 5.204529
864.1591, 9.494080
864.6412, 26.45628
865.1233, 31.01837
865.6054, 23.56445
866.0875, 18.51727
866.5696, 31.54482
867.0518, 43.62402
867.5339, 38.85919
868.0160, 14.51611
868.4981, 4.776138
868.9802, 17.59248
869.4623, 29.22914
869.9445, 25.81982
870.4266, 12.27211
870.9087, 11.55624
871.3908, 22.32512
871.8729, 31.70242
872.3550, 30.19931
872.8372, 25.39828
873.3193, 24.65356
873.8014, 26.83179
874.2835, 24.61908
874.7656, 6.028885
875.2477, 4.244141
875.7299, 5.114670
876.2120, 26.81305
876.6941, 29.42178
877.1762, 12.95569
877.6583, 0.5712890
878.1404, 4.398239
878.6226, 15.56207
879.1047, 25.56267
879.5869, 33.41359
880.0690, 36.84766
880.5511, 29.24928
881.0332, 23.77888
881.5153, 27.41833
881.9974, 34.70056
882.4796, 33.09618
882.9617, 20.20233
883.4438, 12.15756
883.9259, 14.17889
884.4080, 19.94360
884.8901, 19.40945
885.3723, 14.77478
885.8544, 11.11890
886.3365, 10.21628
886.8186, 10.63266
887.3007, 14.08385
887.7828, 17.49173
888.2650, 15.83492
888.7471, 4.629913
889.2292, 1.273895
889.7113, 9.465027
890.1934, 20.68094
890.6755, 25.09543
891.1577, 23.44972
891.6398, 16.24536
892.1219, 1.764114
892.6040, 8.406677
893.0861, 1.458694
893.5682, 10.92946
894.0504, 17.83908
894.5325, 16.11752
895.0146, 12.16817
895.4967, 3.723602
895.9788, 2.758072
896.4609, 0.4455410
896.9431, 11.16322
897.4252, 15.29022
897.9073, 12.76833
898.3894, 9.876862
898.8715, 11.59138
899.3536, 15.19121
899.8358, 19.01672
900.3179, 23.00932
900.8000, 24.87715
901.2821, 23.98785
901.7642, 21.60655
902.2463, 17.14969
902.7285, 11.42392
903.2106, 11.29408
903.6927, 16.76050
904.1748, 21.11220
904.6569, 16.42627
905.1390, 11.35081
905.6212, 18.71439
906.1033, 34.50259
906.5854, 41.19017
907.0675, 20.99438
907.5496, 6.866486
908.0317, 9.736420
908.5139, 22.72218
908.9960, 22.81900
909.4781, 9.950851
909.9602, 2.937347
910.4423, 10.64468
910.9244, 21.35161
911.4066, 20.58797
911.8887, 13.01964
912.3708, 6.990112
912.8529, 4.779800
913.3350, 5.375427
913.8171, 9.876999
914.2993, 16.01022
914.7814, 20.98825
915.2635, 24.85471
915.7456, 26.47852
916.2277, 24.50436
916.7098, 23.30069
917.1920, 31.79163
917.6741, 42.78259
918.1562, 44.24734
918.6383, 30.25522
919.1204, 19.32732
919.6025, 21.16774
920.0847, 24.84978
920.5668, 22.37659
921.0489, 12.09457
921.5310, 8.660751
922.0131, 12.95540
922.4952, 16.83699
922.9774, 10.33164
923.4595, 0.9473110
923.9416, 0.9353940
924.4237, 10.43881
924.9058, 19.01199
925.3879, 21.10756
925.8701, 22.78838
926.3522, 25.95657
926.8343, 30.83246
927.3164, 42.15152
927.7985, 61.89203
928.2806, 72.70306
928.7628, 62.89148
929.2449, 43.00806
929.7270, 25.35129
930.2091, 11.14638
930.6912, 3.216232
931.1733, 8.134659
931.6555, 13.40189
932.1376, 16.29832
932.6197, 16.81190
933.1018, 12.95493
933.5839, 3.087463
934.0660, 2.227310
934.5482, 15.18604
935.0303, 31.53485
935.5124, 40.16272
935.9945, 42.16724
936.4766, 38.65990
936.9587, 27.35268
937.4409, 17.75534
937.9230, 14.46652
938.4051, 12.83151
938.8872, 8.338898
939.3693, 0.8101200
939.8514, 1.085739
940.3336, 8.529449
940.8157, 19.59644
941.2978, 26.60225
941.7799, 30.16199
942.2620, 30.51350
942.7441, 28.18236
943.2263, 24.88548
943.7084, 20.83040
944.1905, 16.38268
944.6726, 11.49817
945.1547, 6.173172
945.6368, 3.515701
946.1190, 3.946075
946.6011, 4.381516
947.0832, 2.660934
947.5653, 1.062927
948.0474, 2.613159
948.5295, 6.676285
949.0117, 11.77399
949.4938, 19.72264
949.9759, 25.66656
950.4580, 28.59042
950.9401, 29.37802
951.4222, 27.25845
951.9044, 22.16161
952.3865, 15.66660
952.8686, 7.565094
953.3507, 0.9487000
953.8328, 0.2660520
954.3149, 2.675293
954.7971, 3.792404
955.2792, 1.787888
955.7613, 2.625977
956.2434, 10.73871
956.7255, 17.59045
957.2076, 16.95209
957.6898, 9.119995
958.1719, 4.674881
958.6540, 3.580200
959.1361, 5.553497
959.6182, 14.06018
960.1003, 22.67305
960.5825, 25.39931
961.0646, 22.74088
961.5467, 18.75302
962.0288, 12.09807
962.5109, 7.451599
962.9930, 6.373428
963.4752, 7.671173
963.9573, 7.839493
964.4394, 7.436905
964.9215, 10.91573
965.4036, 23.79446
965.8857, 32.74759
966.3679, 21.55493
966.8500, 2.348557
967.3321, 8.975815
967.8142, 6.492783
968.2963, 1.825729
968.7784, 6.922195
969.2606, 13.86819
969.7427, 9.387207
970.2248, 2.062332
970.7069, 1.712311
971.1890, 11.66563
971.6711, 21.66962
972.1533, 12.76250
972.6354, 0.7480010
973.1175, 3.862213
973.5996, 0.7199400
974.0817, 2.953949
974.5638, 6.749023
975.0460, 12.86633
975.5281, 24.51216
976.0102, 37.01511
976.4923, 40.29781
976.9744, 36.07582
977.4565, 29.38802
977.9387, 17.46564
978.4208, 9.264786
978.9029, 12.31657
979.3850, 18.79836
979.8671, 16.60480
980.3492, 2.868774
980.8314, 1.009171
981.3135, 9.199600
981.7956, 20.88202
982.2777, 19.38109
982.7598, 10.94394
983.2419, 3.299026
983.7241, 2.853287
984.2062, 4.230911
984.6883, 5.040894
985.1704, 14.44368
985.6525, 19.15126
986.1346, 19.67268
986.6168, 21.81813
987.0989, 25.49532
987.5810, 27.76781
988.0631, 27.27892
988.5452, 24.32430
989.0273, 17.21103
989.5095, 7.929886
989.9916, 1.541321
990.4737, 4.099670
990.9558, 0.3881380
991.4379, 18.76283
991.9200, 40.37215
992.4022, 41.69986
992.8843, 27.17308
993.3664, 15.81836
993.8485, 11.41457
994.3306, 9.188446
994.8127, 5.273438
995.2949, 2.508820
995.7770, 4.212204
996.2591, 11.31528
996.7412, 16.86496
997.2233, 21.56757
997.7054, 21.79236
998.1876, 10.51471
998.6697, 4.829575
999.1518, 6.219223
999.6339, 3.529739
1000.116, 13.02478
1000.598, 21.55058
1001.080, 23.73882
1001.562, 10.55243
1002.044, 6.737976
1002.527, 5.150085
1003.009, 17.12653
1003.491, 31.63089
1003.973, 32.32359
1004.455, 27.00381
1004.937, 20.99402
1005.419, 15.59154
1005.901, 12.65504
1006.384, 12.91632
1006.866, 14.07602
1007.348, 16.71115
1007.830, 18.82663
1008.312, 19.84943
1008.794, 19.46571
1009.276, 13.99280
1009.758, 4.280380
1010.240, 2.809525
1010.723, 2.457428
1011.205, 0.9753880
1011.687, 6.377151
1012.169, 12.63373
1012.651, 16.48332
1013.133, 15.87244
1013.615, 19.84499
1014.097, 31.69690
1014.580, 43.35652
1015.062, 42.58253
1015.544, 33.75003
1016.026, 23.66428
1016.508, 12.53580
1016.990, 6.909897
1017.472, 13.96494
1017.954, 23.26686
1018.436, 29.38376
1018.919, 32.32434
1019.401, 32.29578
1019.883, 29.28693
1020.365, 27.40607
1020.847, 32.29118
1021.329, 36.71738
1021.811, 30.19383
1022.293, 17.77458
1022.776, 11.87950
1023.258, 17.88977
1023.740, 25.94475
1024.222, 36.01819
1024.704, 46.33217
1025.186, 55.47522
1025.668, 62.95979
1026.150, 62.34245
1026.632, 51.76152
1027.115, 44.46841
1027.597, 55.95856
1028.079, 67.00589
1028.561, 61.80679
1029.043, 41.48654
1029.525, 33.53055
1030.007, 39.65201
1030.489, 44.83096
1030.972, 40.02200
1031.454, 32.84015
1031.936, 35.29269
1032.418, 42.63397
1032.900, 45.16336
1033.382, 35.08575
1033.864, 26.27435
1034.346, 18.62247
1034.828, 14.68552
1035.311, 20.51938
1035.793, 33.84790
1036.275, 37.63370
1036.757, 30.49084
1037.239, 23.90546
1037.721, 26.81165
1038.203, 32.50562
1038.685, 37.00818
1039.167, 40.18814
1039.650, 42.23834
1040.132, 43.44708
1040.614, 41.80594
1041.096, 35.35254
1041.578, 27.79126
1042.060, 25.70367
1042.542, 27.49542
1043.024, 29.43213
1043.507, 30.89661
1043.989, 31.63531
1044.471, 31.52319
1044.953, 30.72424
1045.435, 30.50278
1045.917, 30.75186
1046.399, 28.87939
1046.881, 24.88947
1047.364, 19.85275
1047.846, 11.59308
1048.328, 4.983978
1048.810, 4.025452
1049.292, 8.250427
1049.774, 14.74274
1050.256, 23.81903
1050.738, 35.06708
1051.220, 50.48016
1051.703, 62.38937
1052.185, 53.98587
1052.667, 36.10379
1053.149, 28.20834
1053.631, 36.83014
1054.113, 42.43848
1054.595, 37.98715
1055.077, 31.33661
1055.559, 25.46942
1056.042, 20.68161
1056.524, 18.94696
1057.006, 20.15457
1057.488, 22.36398
1057.970, 25.42300
1058.452, 27.22711
1058.934, 24.97910
1059.416, 21.73004
1059.899, 23.75598
1060.381, 35.38904
1060.863, 38.43298
1061.345, 29.56946
1061.827, 18.38461
1062.309, 13.93893
1062.791, 13.87207
1063.273, 16.25739
1063.755, 20.71210
1064.238, 21.54971
1064.720, 11.05768
1065.202, 5.009949
1065.684, 9.520996
1066.166, 20.55307
1066.648, 28.68604
1067.130, 33.43060
1067.612, 32.26263
1068.094, 20.98053
1068.577, 11.47388
1069.059, 12.23285
1069.541, 17.28369
1070.023, 20.48718
1070.505, 20.84259
1070.987, 26.10843
1071.469, 37.17831
1071.951, 45.08698
1072.434, 40.59964
1072.916, 31.84637
1073.398, 27.78201
1073.880, 27.67914
1074.362, 28.41695
1074.844, 29.78375
1075.326, 31.40958
1075.808, 33.93398
1076.291, 35.52490
1076.773, 32.89380
1077.255, 27.20920
1077.737, 22.70798
1078.219, 20.24300
1078.701, 17.22258
1079.183, 6.067047
1079.665, 1.037674
1080.147, 12.47353
1080.630, 35.99109
1081.112, 44.19449
1081.594, 37.58868
1082.076, 31.99110
1082.558, 35.07901
1083.040, 38.08292
1083.522, 31.19026
1084.004, 21.00381
1084.486, 15.43561
1084.969, 15.92426
1085.451, 14.99500
1085.933, 12.67101
1086.415, 12.37743
1086.897, 21.16170
1087.379, 31.50333
1087.861, 27.14975
1088.343, 11.55222
1088.826, 0.3486480
1089.308, 2.328247
1089.790, 3.404678
1090.272, 21.88989
1090.754, 42.98781
1091.236, 49.11270
1091.718, 43.48825
1092.200, 40.99615
1092.682, 43.87341
1093.165, 47.20190
1093.647, 49.69479
1094.129, 49.89771
1094.611, 46.84117
1095.093, 40.78394
1095.575, 30.84088
1096.057, 16.59668
1096.539, 9.413254
1097.022, 16.31989
1097.504, 27.31285
1097.986, 32.00352
1098.468, 33.09196
1098.950, 35.65802
1099.432, 44.40228
1099.914, 42.41286
1100.396, 26.80515
1100.879, 9.986450
1101.361, 1.622818
1101.843, 7.066727
1102.325, 1.761322
1102.807, 11.71735
1103.289, 23.61383
1103.771, 31.26828
1104.253, 35.49313
1104.735, 35.86510
1105.218, 34.13307
1105.700, 33.00830
1106.182, 31.98628
1106.664, 28.34254
1107.146, 21.18134
1107.628, 14.54025
1108.110, 8.206406
1108.592, 5.596786
1109.074, 9.732330
1109.557, 19.04443
1110.039, 29.64720
1110.521, 41.71426
1111.003, 44.03726
1111.485, 29.53558
1111.967, 16.11324
1112.449, 27.69662
1112.931, 45.74849
1113.414, 48.65974
1113.896, 30.66354
1114.378, 15.27171
1114.860, 1.168579
1115.342, 4.246277
1115.824, 9.484680
1116.306, 29.09682
1116.788, 31.76524
1117.271, 23.91396
1117.753, 19.90456
1118.235, 30.17630
1118.717, 35.57657
1119.199, 34.71158
1119.681, 29.29497
1120.163, 16.56793
1120.645, 1.307709
1121.127, 1.000778
1121.609, 14.46054
1122.092, 23.73383
1122.574, 14.17453
1123.056, 5.724426
1123.538, 5.193802
1124.020, 9.922043
1124.502, 14.26723
1124.984, 17.92035
1125.466, 19.07237
1125.949, 17.03574
1126.431, 15.20868
1126.913, 18.37245
1127.395, 20.50624
1127.877, 14.54454
1128.359, 2.402649
1128.841, 2.380051
1129.323, 15.41510
1129.806, 23.21736
1130.288, 16.86938
1130.770, 7.547134
1131.252, 6.565445
1131.734, 9.452454
1132.216, 10.46382
1132.698, 8.574707
1133.180, 5.613831
1133.662, 0.9515230
1134.145, 2.000168
1134.627, 0.8172300
1135.109, 3.229996
1135.591, 9.140442
1136.073, 16.23262
1136.555, 22.62114
1137.037, 28.55978
1137.519, 32.20004
1138.001, 32.34213
1138.484, 32.49171
1138.966, 40.16460
1139.448, 49.64774
1139.930, 44.48627
1140.412, 25.33672
1140.894, 7.137970
1141.376, 9.517303
1141.858, 16.78896
1142.341, 10.65117
1142.823, 2.926331
1143.305, 15.02968
1143.787, 25.22903
1144.269, 32.05688
1144.751, 35.10335
1145.233, 34.28653
1145.715, 25.43616
1146.198, 18.04556
1146.680, 18.65492
1147.162, 24.69930
1147.644, 23.89778
1148.126, 16.68057
1148.608, 9.486130
1149.090, 3.015747
1149.572, 0.4852910
1150.054, 7.435959
1150.536, 17.32021
1151.019, 24.66891
1151.501, 29.52692
1151.983, 28.11598
1152.465, 20.18916
1152.947, 12.31548
1153.429, 8.414017
1153.911, 5.706253
1154.393, 1.033096
1154.876, 7.556213
1155.358, 5.115921
1155.840, 11.82250
1156.322, 20.88531
1156.804, 20.77159
1157.286, 17.70052
1157.768, 15.98108
1158.250, 14.67540
1158.733, 12.07616
1159.215, 8.729584
1159.697, 6.797256
1160.179, 8.227646
1160.661, 8.892639
1161.143, 7.339020
1161.625, 7.571045
1162.107, 19.82553
1162.589, 34.45844
1163.072, 31.25189
1163.554, 10.27110
1164.036, 2.230896
1164.518, 6.433105
1165.000, 13.73845
1165.482, 14.38916
1165.964, 11.14687
1166.446, 7.539124
1166.928, 4.266281
1167.411, 3.313690
1167.893, 5.467300
1168.375, 6.721130
1168.857, 0.7963870
1169.339, 0.7405850
1169.821, 15.13326
1170.303, 36.44470
1170.785, 42.25717
1171.268, 35.29330
1171.750, 26.37659
1172.232, 16.97931
1172.714, 12.28148
1173.196, 19.27396
1173.678, 26.99088
1174.160, 27.19876
1174.642, 21.66216
1175.125, 24.00873
1175.607, 32.30231
1176.089, 35.59628
1176.571, 19.51762
1177.053, 9.578979
1177.535, 24.53645
1178.017, 45.29214
1178.499, 55.22313
1178.981, 54.45892
1179.464, 47.18962
1179.946, 33.84076
1180.428, 20.03716
1180.910, 4.762741
1181.392, 5.049713
1181.874, 2.638702
1182.356, 6.066025
1182.838, 12.44193
1183.320, 16.47487
1183.803, 20.23203
1184.285, 23.91652
1184.767, 26.20586
1185.249, 23.49727
1185.731, 21.57878
1186.213, 26.69101
1186.695, 35.45572
1187.177, 38.00098
1187.660, 33.92311
1188.142, 29.76407
1188.624, 26.66261
1189.106, 23.19008
1189.588, 13.70753
1190.070, 6.979034
1190.552, 14.64954
1191.034, 32.99915
1191.516, 38.71307
1191.999, 30.24062
1192.481, 22.19498
1192.963, 17.90564
1193.445, 16.19771
1193.927, 18.25366
1194.409, 20.82390
1194.891, 20.33069
1195.373, 16.48869
1195.855, 12.63080
1196.338, 8.574097
1196.820, 5.806076
1197.302, 4.621185
1197.784, 5.600128
1198.266, 11.35522
1198.748, 18.62801
1199.230, 23.06679
1199.712, 24.87679
1200.195, 21.51590
1200.677, 12.45766
1201.159, 3.807037
1201.641, 3.184814
1202.123, 4.884964
1202.605, 9.500183
1203.087, 29.69846
1203.569, 38.21674
1204.052, 28.12106
1204.534, 22.95380
1205.016, 23.42598
1205.498, 24.33842
1205.980, 21.11671
1206.462, 17.17072
1206.944, 15.01645
1207.426, 15.34981
1207.908, 21.39169
1208.391, 40.06897
1208.873, 42.36920
1209.355, 24.17996
1209.837, 5.360077
1210.319, 4.034744
1210.801, 10.37531
1211.283, 13.81041
1211.765, 15.32686
1212.247, 20.22182
1212.730, 31.95869
1213.212, 35.57666
1213.694, 28.12126
1214.176, 20.06967
1214.658, 24.46155
1215.140, 32.24568
1215.622, 32.61275
1216.104, 26.29562
1216.587, 21.13295
1217.069, 17.22617
1217.551, 16.39848
1218.033, 19.55273
1218.515, 23.03172
1218.997, 22.75821
1219.479, 20.54010
1219.961, 16.58054
1220.443, 11.72340
1220.926, 14.87297
1221.408, 29.49455
1221.890, 38.43214
1222.372, 37.53503
1222.854, 32.37794
1223.336, 26.79898
1223.818, 22.83179
1224.300, 24.28355
1224.782, 31.75121
1225.265, 34.11272
1225.747, 30.76253
1226.229, 24.87924
1226.711, 16.73706
1227.193, 8.217010
1227.675, 2.329697
1228.157, 9.680588
1228.639, 4.908966
1229.122, 14.49127
1229.604, 24.24048
1230.086, 22.89667
1230.568, 21.88657
1231.050, 25.93378
1231.532, 31.50813
1232.014, 37.25478
1232.496, 40.62222
1232.979, 36.81546
1233.461, 24.25105
1233.943, 19.25322
1234.425, 22.78064
1234.907, 26.33176
1235.389, 22.92612
1235.871, 19.73035
1236.353, 26.35426
1236.835, 35.39316
1237.318, 35.52888
1237.800, 24.38785
1238.282, 22.53539
1238.764, 30.47940
1239.246, 36.76581
1239.728, 35.07385
1240.210, 30.86171
1240.692, 26.65750
1241.175, 23.07285
1241.657, 20.68587
1242.139, 19.34299
1242.621, 20.27791
1243.103, 23.53604
1243.585, 27.01070
1244.067, 29.37909
1244.549, 31.64143
1245.031, 36.72786
1245.514, 40.77237
1245.996, 38.79263
1246.478, 30.33018
1246.960, 17.95618
1247.442, 2.239868
1247.924, 5.610596
1248.406, 9.363922
1248.888, 25.79842
1249.370, 31.67125
1249.853, 31.98863
1250.335, 33.55124
1250.817, 36.23169
1251.299, 36.54836
1251.781, 34.31372
1252.263, 29.05144
1252.745, 15.99937
1253.227, 8.066132
1253.710, 14.84119
1254.192, 27.13358
1254.674, 35.26593
1255.156, 39.08138
1255.638, 34.99084
1256.120, 23.71866
1256.602, 15.74503
1257.084, 18.61603
1257.567, 23.89604
1258.049, 29.92499
1258.531, 35.31245
1259.013, 38.56197
1259.495, 39.50183
1259.977, 36.38828
1260.459, 29.56172
1260.941, 23.88808
1261.423, 20.41647
1261.906, 20.81618
1262.388, 27.71213
1262.870, 34.67805
1263.352, 30.02524
1263.834, 19.00204
1264.316, 13.94144
1264.798, 15.59161
1265.280, 16.41721
1265.762, 15.47032
1266.245, 16.93571
1266.727, 22.06339
1267.209, 27.27084
1267.691, 28.04738
1268.173, 25.34456
1268.655, 18.49138
1269.137, 8.098175
1269.619, 5.461456
1270.102, 15.15970
1270.584, 22.42545
1271.066, 24.13968
1271.548, 22.63673
1272.030, 15.15024
1272.512, 9.867538
1272.994, 23.46156
1273.476, 53.83156
1273.958, 56.50429
1274.441, 21.91754
1274.923, 3.690964
1275.405, 15.79195
1275.887, 35.01566
1276.369, 35.47784
1276.851, 29.47478
1277.333, 28.18501
1277.815, 31.39041
1278.297, 33.82266
1278.780, 35.54501
1279.262, 33.73486
1279.744, 26.78419
1280.226, 22.25443
1280.708, 31.99495
1281.190, 40.99750
1281.672, 35.21391
1282.154, 20.37744
1282.637, 19.06128
1283.119, 29.53656
1283.601, 34.52319
1284.083, 29.51540
1284.565, 25.69629
1285.047, 30.77548
1285.529, 38.08078
1286.011, 45.41852
1286.494, 51.55945
1286.976, 50.73688
1287.458, 45.45035
1287.940, 44.98685
1288.422, 52.06859
1288.904, 56.85898
1289.386, 54.54291
1289.868, 51.39513
1290.350, 51.00842
1290.833, 48.69104
1291.315, 27.83871
1291.797, 0.3200530
1292.279, 8.384644
1292.761, 8.778946
1293.243, 23.28772
1293.725, 33.18033
1294.207, 35.36578
1294.689, 25.93588
1295.172, 15.30508
1295.654, 23.40250
1296.136, 37.03394
1296.618, 35.58987
1297.100, 12.79710
1297.582, 5.1300000E-02
1298.064, 15.63513
1298.546, 29.28418
1299.029, 34.24646
1299.511, 33.57013
1299.993, 26.86426
1300.475, 20.75732
1300.957, 11.38831
1301.439, 1.456207
1301.921, 0.0000000E+00




