##NAMES=Ilmenite
##LOCALITY=Faraday Property, Bancroft District, Ontario, Canada
##RRUFFID=R060149
##CHEMISTRY=Fe^2+^Ti^4+^O_3_
201.6978, 45.75321
203.6263, 45.55809
205.5547, 45.64791
207.4832, 45.86267
209.4117, 46.07439
211.3401, 46.15046
213.2686, 46.41083
215.1971, 47.05771
217.1255, 47.94296
219.0540, 48.68888
220.9825, 49.21390
222.9109, 49.66371
224.8394, 50.06895
226.7679, 50.46933
228.6963, 50.69131
230.6248, 50.67400
232.5533, 50.44327
234.4817, 49.99984
236.4102, 49.12926
238.3387, 48.20507
240.2671, 47.56071
242.1956, 47.27142
244.1241, 46.93891
246.0525, 46.40792
247.9810, 45.74247
249.9095, 45.12727
251.8379, 44.55107
253.7664, 44.07457
255.6949, 43.67078
257.6233, 43.35706
259.5518, 42.99564
261.4803, 42.46901
263.4087, 42.00957
265.3372, 41.84797
267.2657, 42.22200
269.1941, 42.41155
271.1226, 42.14928
273.0511, 41.28637
274.9795, 40.75166
276.9080, 40.78669
278.8365, 41.11665
280.7649, 41.38058
282.6934, 41.53567
284.6219, 41.56752
286.5503, 41.47785
288.4788, 41.37164
290.4073, 41.51406
292.3357, 41.96855
294.2642, 42.45250
296.1927, 42.88099
298.1211, 43.19963
300.0496, 43.54132
301.9781, 43.95445
303.9065, 44.42395
305.8350, 44.85151
307.7635, 45.06772
309.6919, 45.28698
311.6204, 45.72694
313.5489, 46.49459
315.4773, 47.23814
317.4058, 47.74349
319.3343, 48.10904
321.2627, 48.60881
323.1912, 49.53542
325.1197, 50.56426
327.0481, 51.45509
328.9766, 52.12238
330.9051, 52.41422
332.8336, 52.20184
334.7620, 51.68837
336.6905, 51.03600
338.6190, 50.23903
340.5474, 49.39889
342.4759, 48.60061
344.4044, 47.83427
346.3328, 47.00581
348.2613, 45.86143
350.1898, 44.73404
352.1182, 43.95081
354.0467, 43.60382
355.9752, 43.13412
357.9036, 42.07608
359.8321, 40.92883
361.7606, 40.27395
363.6890, 40.41711
365.6175, 40.58596
367.5460, 40.83077
369.4744, 41.14903
371.4029, 41.34436
373.3314, 41.14188
375.2598, 40.68975
377.1883, 40.13117
379.1168, 39.49874
381.0452, 39.06229
382.9737, 38.80106
384.9022, 38.64463
386.8306, 38.51754
388.7591, 38.48844
390.6876, 38.32477
392.6160, 38.05585
394.5445, 37.76697
396.4730, 37.59939
398.4014, 37.43145
400.3299, 37.30723
402.2584, 37.27338
404.1868, 37.44418
406.1153, 37.61137
408.0438, 37.71124
409.9722, 37.78829
411.9007, 37.95448
413.8292, 38.45524
415.7576, 38.92112
417.6861, 39.06751
419.6146, 38.68523
421.5430, 38.16556
423.4715, 37.79323
425.4000, 37.75062
427.3284, 38.01223
429.2569, 38.39381
431.1854, 38.56992
433.1138, 38.67855
435.0423, 38.85235
436.9708, 39.19020
438.8992, 39.75534
440.8277, 40.05429
442.7562, 39.79488
444.6846, 38.81409
446.6131, 38.15578
448.5416, 38.20771
450.4700, 38.70032
452.3985, 39.46235
454.3270, 40.40483
456.2554, 40.61021
458.1839, 39.82475
460.1124, 38.64434
462.0408, 38.10581
463.9693, 38.20094
465.8978, 38.30150
467.8262, 38.22393
469.7547, 38.00352
471.6832, 37.74532
473.6116, 37.41943
475.5401, 37.05814
477.4686, 36.65594
479.3970, 36.24976
481.3255, 35.93695
483.2540, 35.77935
485.1824, 35.69004
487.1109, 35.59948
489.0394, 35.50343
490.9678, 35.34420
492.8963, 35.06162
494.8248, 34.81860
496.7532, 34.88057
498.6817, 35.21682
500.6102, 35.44430
502.5386, 35.46833
504.4671, 35.47131
506.3956, 35.49354
508.3240, 35.58360
510.2525, 35.63379
512.1810, 35.53498
514.1094, 34.96647
516.0379, 34.54954
517.9664, 34.65143
519.8948, 35.06122
521.8233, 35.29585
523.7518, 35.31868
525.6802, 35.38404
527.6087, 35.43027
529.5372, 35.33492
531.4656, 35.22951
533.3941, 35.53144
535.3226, 35.89079
537.2510, 36.20482
539.1795, 36.36371
541.1080, 36.42090
543.0364, 36.25211
544.9649, 36.19297
546.8934, 36.46655
548.8218, 37.11578
550.7503, 37.55975
552.6788, 37.72455
554.6072, 37.83516
556.5357, 38.01838
558.4642, 38.35709
560.3926, 38.71346
562.3211, 38.97907
564.2496, 39.16892
566.1780, 39.49037
568.1065, 40.21968
570.0350, 40.74549
571.9634, 40.64957
573.8919, 40.11179
575.8204, 40.00178
577.7488, 40.50984
579.6773, 40.98301
581.6058, 41.12811
583.5342, 41.25222
585.4627, 41.53152
587.3912, 41.99809
589.3196, 42.44829
591.2481, 42.85048
593.1766, 43.11437
595.1050, 43.31355
597.0335, 43.41547
598.9620, 43.55329
600.8904, 43.82820
602.8189, 44.18644
604.7474, 44.51397
606.6758, 44.84175
608.6043, 45.25683
610.5328, 45.72673
612.4612, 45.80995
614.3897, 45.93935
616.3182, 46.31006
618.2466, 47.01255
620.1751, 47.50033
622.1036, 47.31530
624.0320, 47.31045
625.9605, 47.91162
627.8890, 48.99637
629.8174, 49.80320
631.7459, 50.18028
633.6744, 50.62166
635.6028, 51.31966
637.5313, 52.22347
639.4598, 53.20692
641.3882, 54.12706
643.3167, 54.98786
645.2452, 55.78550
647.1736, 56.85448
649.1021, 58.11527
651.0306, 59.65398
652.9590, 61.14193
654.8875, 62.52388
656.8160, 63.84375
658.7444, 65.15640
660.6729, 66.44731
662.6014, 67.75905
664.5298, 69.14991
666.4583, 70.62148
668.3868, 72.00753
670.3152, 73.24913
672.2437, 74.40819
674.1722, 75.60255
676.1006, 76.83211
678.0291, 77.72462
679.9576, 78.20641
681.8860, 78.40878
683.8145, 78.45993
685.7430, 78.40608
687.6714, 77.89572
689.5999, 76.79739
691.5284, 75.39727
693.4568, 73.75307
695.3853, 71.56247
697.3138, 69.55717
699.2422, 68.03750
701.1707, 66.75716
703.0992, 65.34437
705.0276, 63.57360
706.9561, 62.03278
708.8846, 60.89231
710.8130, 60.12152
712.7415, 59.37361
714.6700, 58.66481
716.5984, 57.90775
718.5269, 56.93512
720.4554, 55.89069
722.3839, 55.20158
724.3123, 55.35994
726.2408, 55.37112
728.1693, 54.95180
730.0977, 54.15138
732.0262, 53.38452
733.9547, 52.64989
735.8831, 52.08413
737.8116, 51.83347
739.7401, 51.75863
741.6685, 51.44065
743.5970, 50.33756
745.5255, 49.56410
747.4539, 49.78460
749.3824, 50.87553
751.3109, 51.28834
753.2393, 50.49603
755.1678, 49.63697
757.0963, 49.28952
759.0247, 49.44904
760.9532, 49.36489
762.8817, 48.69698
764.8101, 48.11712
766.7386, 47.54448
768.6671, 48.03147
770.5955, 48.31668
772.5240, 48.41095
774.4525, 47.74241
776.3809, 48.05888
778.3094, 47.98061
780.2379, 47.88615
782.1663, 48.34126
784.0948, 47.78367
786.0233, 48.23007
787.9517, 48.27569
789.8802, 48.50473
791.8087, 48.33660
793.7371, 48.29113
795.6656, 48.64299
797.5941, 48.77484
799.5225, 48.56098
801.4510, 48.80169
803.3795, 48.23022
805.3079, 48.37144
807.2364, 48.82017
809.1649, 48.62627
811.0933, 48.87424
813.0218, 48.95393
814.9503, 48.26883
816.8787, 48.91376
818.8072, 48.98350
820.7357, 48.46264
822.6641, 49.06200
824.5926, 48.62255
826.5211, 48.55391
828.4495, 48.76429
830.3780, 48.68379
832.3065, 49.06192
834.2349, 48.99821
836.1634, 48.89503
838.0919, 48.96413
840.0203, 48.54506
841.9488, 49.03163
843.8773, 48.89957
845.8057, 49.07502
847.7342, 49.32017
849.6627, 49.03162
851.5911, 49.18854
853.5196, 49.12511
855.4481, 48.78902
857.3765, 48.54101
859.3050, 48.61017
861.2335, 48.62474
863.1619, 48.31953
865.0904, 47.87059
867.0189, 47.66169
868.9473, 47.79560
870.8758, 47.86497
872.8043, 47.66947
874.7327, 47.34003
876.6612, 47.10466
878.5897, 47.15615
880.5181, 47.00570
882.4466, 46.48856
884.3751, 45.85063
886.3035, 45.27006
888.2320, 44.75916
890.1605, 44.40988
892.0889, 44.33437
894.0174, 44.19880
895.9459, 44.09697
897.8743, 44.25785
899.8028, 44.38044
901.7313, 44.11174
903.6597, 43.48299
905.5882, 43.23468
907.5167, 43.56024
909.4451, 43.65459
911.3736, 43.09586
913.3021, 42.49545
915.2305, 42.39675
917.1590, 42.67782
919.0875, 42.70202
921.0159, 42.14732
922.9444, 41.72870
924.8729, 41.66002
926.8013, 41.97106
928.7298, 42.19659
930.6583, 42.24544
932.5867, 42.07003
934.5152, 41.72119
936.4437, 41.51069
938.3721, 41.41752
940.3006, 41.45132
942.2291, 41.27748
944.1575, 40.91658
946.0860, 40.55761
948.0145, 40.52043
949.9429, 40.92086
951.8714, 41.30559
953.7999, 41.38596
955.7283, 41.26885
957.6568, 41.24835
959.5853, 41.45702
961.5137, 41.61158
963.4422, 41.47508
965.3707, 41.07178
967.2991, 40.84565
969.2276, 41.03330
971.1561, 41.11101
973.0845, 40.71514
975.0130, 40.00568
976.9415, 39.88287
978.8699, 40.36441
980.7984, 40.73574
982.7269, 40.82494
984.6553, 40.94499
986.5838, 40.90757
988.5123, 40.40052
990.4407, 40.12324
992.3692, 40.52036
994.2977, 41.14659
996.2261, 41.33811
998.1546, 40.92466
1000.083, 40.62508
1002.012, 40.72494
1003.940, 40.95451
1005.868, 40.81012
1007.797, 40.19722
1009.725, 39.85756
1011.654, 40.02837
1013.582, 40.36560
1015.511, 40.62564
1017.439, 40.76893
1019.368, 41.10884
1021.296, 41.71164
1023.225, 42.04282
1025.153, 41.86975
1027.082, 41.42457
1029.010, 40.97350
1030.939, 40.79602
1032.867, 41.10711
1034.796, 41.89641
1036.724, 42.35249
1038.652, 42.05153
1040.581, 41.68641
1042.509, 41.60454
1044.438, 41.50193
1046.366, 41.17399
1048.295, 40.74731
1050.223, 40.77794
1052.152, 40.92377
1054.080, 40.85682
1056.009, 40.75329
1057.937, 40.85372
1059.866, 41.14894
1061.794, 41.33663
1063.723, 41.32869
1065.651, 41.23093
1067.579, 41.11446
1069.508, 40.99270
1071.436, 40.81962
1073.365, 40.58632
1075.293, 40.24379
1077.222, 39.85358
1079.150, 39.65572
1081.079, 39.93618
1083.007, 40.40588
1084.936, 40.40478
1086.864, 40.07795
1088.793, 39.79052
1090.721, 39.72392
1092.650, 39.74647
1094.578, 39.70832
1096.506, 39.54591
1098.435, 39.44013
1100.363, 39.54464
1102.292, 39.80778
1104.220, 39.84796
1106.149, 39.48626
1108.077, 39.12529
1110.006, 38.74247
1111.934, 38.46429
1113.863, 38.52691
1115.791, 39.00739
1117.720, 39.16687
1119.648, 39.19054
1121.577, 39.18159
1123.505, 38.78828
1125.433, 37.90499
1127.362, 37.40828
1129.290, 37.88844
1131.219, 38.25301
1133.147, 38.22443
1135.076, 38.01712
1137.004, 37.99039
1138.933, 37.86852
1140.861, 37.77746
1142.790, 37.87322
1144.718, 38.04822
1146.647, 38.04956
1148.575, 37.74117
1150.504, 37.37319
1152.432, 37.24370
1154.360, 37.26087
1156.289, 37.29988
1158.217, 37.39335
1160.146, 37.66050
1162.074, 38.14943
1164.003, 38.22718
1165.931, 37.71171
1167.860, 37.06104
1169.788, 36.76383
1171.717, 36.96206
1173.645, 37.05968
1175.574, 36.76680
1177.502, 36.33520
1179.431, 36.34423
1181.359, 36.94362
1183.287, 37.57409
1185.216, 37.95528
1187.144, 37.92281
1189.073, 37.63270
1191.001, 37.44165
1192.930, 37.45652
1194.858, 37.57021
1196.787, 37.72734
1198.715, 37.99583
1200.644, 37.97947
1202.572, 37.77895
1204.501, 37.55404
1206.429, 37.56739
1208.358, 37.75492
1210.286, 37.91976
1212.214, 37.93909
1214.143, 37.79466
1216.071, 37.76551
1218.000, 37.94015
1219.928, 38.11876
1221.857, 38.29375
1223.785, 38.54753
1225.714, 38.59064
1227.642, 38.42275
1229.571, 38.43797
1231.499, 38.97227
1233.428, 39.36094
1235.356, 39.01739
1237.285, 38.30994
1239.213, 37.90620
1241.141, 37.94017
1243.070, 38.07933
1244.998, 38.38797
1246.927, 38.69987
1248.855, 38.75545
1250.784, 38.61732
1252.712, 38.71859
1254.641, 39.19516
1256.569, 39.71781
1258.498, 40.22772
1260.426, 40.42291
1262.355, 40.30051
1264.283, 40.01751
1266.212, 39.95405
1268.140, 40.09968
1270.068, 40.24968
1271.997, 40.60987
1273.925, 40.96662
1275.854, 40.91816
1277.782, 40.07772
1279.711, 39.80046
1281.639, 40.54988
1283.568, 41.44123
1285.496, 42.09196
1287.425, 42.47853
1289.353, 42.54724
1291.282, 42.14916
1293.210, 41.81340
1295.139, 41.70351
1297.067, 41.81273
1298.995, 41.96329
1300.924, 42.13707
1302.852, 42.36522
1304.781, 42.77526
1306.709, 43.03034
1308.638, 42.75029
1310.566, 42.24388
1312.495, 42.24447
1314.423, 43.01716
1316.352, 43.58448
1318.280, 43.56902
1320.209, 43.39930
1322.137, 43.26923
1324.066, 42.81503
1325.994, 43.23978
1327.922, 43.46276
1329.851, 43.49478
1331.779, 42.76400
1333.708, 43.01822
1335.636, 42.87771
1337.565, 42.72099
1339.493, 43.11387
1341.422, 42.49402
1343.350, 42.87819
1345.279, 42.86155
1347.207, 43.02837
1349.136, 42.79797
1351.064, 42.69027
1352.993, 42.97987
1354.921, 43.04950
1356.849, 42.97775
1358.778, 42.99683
1360.706, 42.73689
1362.635, 42.40069
1364.563, 42.02196
1366.492, 41.86792
1368.420, 41.92792
1370.349, 42.05368
1372.277, 42.55716
1374.206, 43.15398
1376.134, 43.23664
1378.063, 42.58663
1379.991, 42.10490
1381.920, 41.81444
1383.848, 41.71991
1385.776, 41.99671
1387.705, 42.29274
1389.633, 41.99472
1391.562, 41.07365
1393.490, 40.61767
1395.419, 41.11884
1397.347, 41.55956
1399.276, 41.25058
1401.204, 40.71272
1403.133, 40.77188
1405.061, 41.54286
1406.990, 41.15895
1408.918, 42.00222
1410.847, 42.44189
1412.775, 42.49972
1414.703, 41.03193
1416.632, 41.53414
1418.560, 41.24688
1420.489, 40.92720
1422.417, 41.70672
1424.346, 40.46080
1426.274, 41.22288
1428.203, 41.18338
1430.131, 41.31121
1432.060, 41.19202
1433.988, 41.13075
1435.917, 41.18782
1437.845, 41.24410
1439.774, 41.24744
1441.702, 41.19289
1443.630, 41.08109
1445.559, 40.89448
1447.487, 40.80495
1449.416, 41.00384
1451.344, 41.09730
1453.273, 40.72980
1455.201, 40.19809
1457.130, 40.05359
1459.058, 40.34712
1460.987, 40.48432
1462.915, 40.26458
1464.844, 40.02662
1466.772, 39.93539
1468.701, 39.90234
1470.629, 39.77140
1472.557, 39.49847
1474.486, 39.55157
1476.414, 40.42372
1478.343, 41.04012
1480.271, 40.76127
1482.200, 40.11069
1484.128, 39.90782
1486.057, 40.26753
1487.985, 40.33752
1489.914, 39.82755
1491.842, 39.38518
1493.771, 39.08705
1495.699, 38.94367
1497.628, 39.04518
1499.556, 39.47334
1501.484, 39.68034
1503.413, 39.39238
1505.341, 39.17852
1507.270, 39.28251
1509.198, 39.44367
1511.127, 39.28036
1513.055, 38.83020
1514.984, 38.78085
1516.912, 39.48996
1518.841, 39.79382
1520.769, 39.03331
1522.698, 38.21112
1524.626, 38.07269
1526.555, 38.41734
1528.483, 38.59122
1530.411, 38.53398
1532.340, 38.56791
1534.268, 38.98955
1536.197, 39.22888
1538.125, 38.73877
1540.054, 37.22312
1541.982, 38.11855
1543.911, 38.61040
1545.839, 38.72041
1547.768, 37.30476
1549.696, 37.85917
1551.625, 37.62405
1553.553, 37.35659
1555.482, 38.18825
1557.410, 36.99452
1559.339, 37.80875
1561.267, 37.82145
1563.195, 38.20099
1565.124, 37.78615
1567.052, 37.61668
1568.981, 38.24182
1570.909, 38.42699
1572.838, 37.92070
1574.766, 38.32356
1576.695, 37.10207
1578.623, 37.30597
1580.552, 38.12486
1582.480, 37.65852
1584.409, 38.07589
1586.337, 37.04296
1588.266, 36.52501
1590.194, 36.33074
1592.122, 36.88375
1594.051, 37.23551
1595.979, 37.02031
1597.908, 36.65086
1599.836, 36.51674
1601.765, 36.59735
1603.693, 36.62380
1605.622, 36.40087
1607.550, 36.44521
1609.479, 37.02866
1611.407, 37.63612
1613.336, 38.00492
1615.264, 38.18015
1617.193, 38.31067
1619.121, 38.45438
1621.049, 38.43156
1622.978, 38.00471
1624.906, 37.70237
1626.835, 37.73658
1628.763, 37.88533
1630.692, 37.99369
1632.620, 38.05105
1634.549, 37.94276
1636.477, 37.53223
1638.406, 37.28269
1640.334, 37.33640
1642.263, 37.43862
1644.191, 37.54731
1646.120, 37.59509
1648.048, 37.40869
1649.976, 36.95056
1651.905, 36.74256
1653.833, 36.85420
1655.762, 37.08953
1657.690, 37.58092
1659.619, 38.01884
1661.547, 38.19667
1663.476, 38.16520
1665.404, 38.03879
1667.333, 37.81564
1669.261, 37.55952
1671.190, 37.16965
1673.118, 36.90589
1675.047, 36.92358
1676.975, 37.04265
1678.903, 37.10113
1680.832, 37.10777
1682.760, 37.13854
1684.689, 37.22656
1686.617, 37.19296
1688.546, 36.79811
1690.474, 36.53046
1692.403, 36.63483
1694.331, 36.94476
1696.260, 37.37339
1698.188, 37.88048
1700.117, 37.98159
1702.045, 37.45152
1703.974, 37.17549
1705.902, 37.65114
1707.830, 38.04743
1709.759, 37.77546
1711.687, 37.26154
1713.616, 37.22822
1715.544, 37.63927
1717.473, 37.72921
1719.401, 37.31878
1721.330, 36.96852
1723.258, 36.72144
1725.187, 36.66194
1727.115, 37.05946
1729.044, 37.58165
1730.972, 37.54147
1732.901, 36.94469
1734.829, 36.76770
1736.757, 37.30840
1738.686, 37.67887
1740.614, 37.51550
1742.543, 37.31397
1744.471, 37.39939
1746.400, 37.61694
1748.328, 37.72991
1750.257, 37.73960
1752.185, 37.54757
1754.114, 36.90310
1756.042, 36.57706
1757.971, 36.91210
1759.899, 37.38077
1761.828, 37.79835
1763.756, 38.11050
1765.684, 38.18544
1767.613, 38.01086
1769.541, 37.88997
1771.470, 37.78138
1773.398, 37.80621
1775.327, 38.31191
1777.255, 38.56482
1779.184, 37.88173
1781.112, 36.93809
1783.041, 36.74297
1784.969, 37.26225
1786.898, 37.52742
1788.826, 37.20761
1790.755, 37.26446
1792.683, 38.33248
1794.611, 39.02723
1796.540, 38.37859
1798.468, 37.45797
1800.397, 37.55243
1802.325, 38.45636
1804.254, 38.86601
1806.182, 38.47201
1808.111, 38.25890
1810.039, 38.51820
1811.968, 38.53199
1813.896, 37.88599
1815.825, 37.15053
1817.753, 36.66411
1819.682, 36.45817
1821.610, 36.71920
1823.538, 37.64748
1825.467, 38.04931
1827.395, 37.48210
1829.324, 37.17507
1831.252, 37.67957
1833.181, 38.09014
1835.109, 37.76991
1837.038, 37.18296
1838.966, 37.03155
1840.895, 37.28685
1842.823, 37.41847
1844.752, 37.40390
1846.680, 37.31034
1848.609, 36.95992
1850.537, 36.84574
1852.465, 37.37742
1854.394, 38.02226
1856.322, 38.43842
1858.251, 38.62706
1860.179, 38.50023
1862.108, 38.05709
1864.036, 37.87991
1865.965, 38.12511
1867.893, 38.36597
1869.822, 38.62661
1871.750, 38.67015
1873.679, 38.04665
1875.607, 37.35052
1877.536, 37.46518
1879.464, 38.14431
1881.392, 38.29196
1883.321, 37.76169
1885.249, 37.46847
1887.178, 37.65464
1889.106, 37.86350
1891.035, 38.16047
1892.963, 38.21960
1894.892, 37.42916
1896.820, 36.45205
1898.749, 36.65787
1900.677, 38.01427
1902.606, 38.47881
1904.534, 37.28037
1906.463, 36.86283
1908.391, 38.20512
1910.319, 39.10801
1912.248, 38.56349
1914.176, 37.71138
1916.105, 37.33680
1918.033, 37.31759
1919.962, 37.44148
1921.890, 37.71821
1923.819, 37.93231
1925.747, 38.03975
1927.676, 38.19921
1929.604, 38.57690
1931.533, 38.78889
1933.461, 38.68219
1935.390, 38.41114
1937.318, 37.92419
1939.246, 37.42098
1941.175, 37.35699
1943.103, 37.69093
1945.032, 37.98521
1946.960, 38.20721
1948.889, 38.44775
1950.817, 38.89618
1952.746, 39.01595
1954.674, 38.11650
1956.603, 37.29575
1958.531, 37.49735
1960.460, 38.20884
1962.388, 38.67492
1964.317, 38.88956
1966.245, 38.74333
1968.173, 38.02848
1970.102, 37.72307
1972.030, 38.19654
1973.959, 38.66418
1975.887, 39.12640
1977.816, 39.33713
1979.744, 38.91909
1981.673, 38.31921
1983.601, 38.14221
1985.530, 38.31772
1987.458, 38.46038
1989.387, 38.52991
1991.315, 38.78465
1993.244, 39.48303
1995.172, 39.78111
1997.100, 39.22625
1999.029, 38.67693
2000.957, 38.45100
2002.886, 38.43023
2004.814, 38.62478
2006.743, 38.91352
2008.671, 39.11950
2010.600, 39.21633
2012.528, 38.88596
2014.457, 37.94942
2016.385, 37.57760
2018.314, 38.32836
2020.242, 38.94416
2022.171, 39.06114
2024.099, 38.89919
2026.027, 38.29883
2027.956, 37.71049
2029.884, 37.74479
2031.813, 38.24988
2033.741, 38.72281
2035.670, 39.20782
2037.598, 39.37136
2039.527, 39.09111
2041.455, 38.75759
2043.384, 38.31380
2045.312, 37.95716
2047.241, 37.81699
2049.169, 37.69306
2051.098, 37.26116
2053.026, 36.92657
2054.955, 37.36123
2056.883, 38.30402
2058.812, 39.02900
2060.740, 39.51302
2062.668, 39.47005
2064.597, 38.68066
2066.525, 38.13694
2068.454, 38.12993
2070.382, 38.24054
2072.311, 38.39467
2074.239, 38.55620
2076.168, 38.84163
2078.096, 39.01764
2080.025, 38.65717
2081.953, 37.95315
2083.882, 37.55019
2085.810, 37.45379
2087.739, 37.69124
2089.667, 38.47119
2091.595, 38.83646
2093.524, 38.43213
2095.452, 38.12750
2097.381, 38.22234
2099.309, 38.40041
2101.238, 38.63700
2103.166, 38.74852
2105.095, 38.41121
2107.023, 37.90581
2108.952, 37.85246
2110.880, 38.17521
2112.809, 38.10985
2114.737, 37.45091
2116.666, 37.31477
2118.594, 38.30319
2120.522, 38.87103
2122.451, 38.56654
2124.379, 38.26583
2126.308, 38.20026
2128.236, 38.27825
2130.165, 38.66188
2132.093, 38.98562
2134.022, 38.68137
2135.950, 37.99181
2137.879, 37.55333
2139.807, 37.35439
2141.736, 37.26908
2143.664, 37.28900
2145.593, 37.44392
2147.521, 37.79281
2149.449, 38.15642
2151.378, 38.70837
2153.306, 38.98303
2155.235, 38.54008
2157.163, 38.06582
2159.092, 38.16209
2161.020, 38.38016
2162.949, 37.98254
2164.877, 37.28493
2166.806, 37.32057
2168.734, 38.02534
2170.663, 38.42360
2172.591, 38.47404
2174.520, 38.56549
2176.448, 38.85587
2178.376, 38.74065
2180.305, 37.64075
2182.233, 36.94353
2184.162, 37.51430
2186.090, 38.18125
2188.019, 38.28617
2189.947, 38.15294
2191.876, 38.05000
2193.804, 37.96716
2195.733, 37.85078
2197.661, 37.72887
2199.590, 37.83862
2201.518, 38.19569
2203.447, 38.19435
2205.375, 37.74442
2207.303, 37.26167
2209.232, 36.64376
2211.160, 36.50890
2213.089, 37.39744
2215.017, 38.20087
2216.946, 38.58824
2218.874, 38.60742
2220.803, 37.90765
2222.731, 37.19251
2224.660, 37.40266
2226.588, 38.05208
2228.517, 38.11577
2230.445, 37.71107
2232.374, 37.70225
2234.302, 38.08773
2236.230, 37.88197
2238.159, 36.92839
2240.087, 36.31102
2242.016, 36.24379
2243.944, 36.29800
2245.873, 36.25895
2247.801, 36.49803
2249.730, 37.72736
2251.658, 38.50836
2253.587, 37.46629
2255.515, 36.27143
2257.444, 36.58459
2259.372, 37.49865
2261.301, 37.83258
2263.229, 37.67126
2265.157, 37.02283
2267.086, 36.05879
2269.014, 35.96307
2270.943, 36.78601
2272.871, 36.89016
2274.800, 35.82412
2276.728, 35.39003
2278.657, 36.24928
2280.585, 37.04140
2282.514, 37.85560
2284.442, 38.15875
2286.371, 37.16467
2288.299, 35.68184
2290.228, 36.60592
2292.156, 37.12645
2294.084, 37.26509
2296.013, 35.87812
2297.941, 36.46117
2299.870, 36.25473
2301.798, 36.01591
2303.727, 36.87624
2305.655, 35.71116
2307.584, 36.55406
2309.512, 36.59541
2311.441, 37.00360
2313.369, 36.61743
2315.298, 36.47661
2317.226, 37.13042
2319.155, 37.34423
2321.083, 36.86662
2323.011, 37.29813
2324.940, 36.10530
2326.868, 36.33786
2328.797, 37.18541
2330.725, 36.74773
2332.654, 37.19377
2334.582, 37.30324
2336.511, 35.88314
2338.439, 37.12312
2340.368, 37.21270
2342.296, 36.12108
2344.225, 37.26991
2346.153, 36.34113
2348.082, 36.15393
2350.010, 36.52481
2351.938, 36.31391
2353.867, 37.02027
2355.795, 36.84296
2357.724, 36.58671
2359.652, 36.67500
2361.581, 35.78696
2363.509, 36.71022
2365.438, 36.39620
2367.366, 36.69720
2369.295, 37.13761
2371.223, 36.51062
2373.152, 37.01366
2375.080, 35.76429
2377.009, 35.98122
2378.937, 36.04026
2380.865, 37.03654
2382.794, 35.79571
2384.722, 35.97190
2386.651, 36.75145
2388.579, 36.68677
2390.508, 36.97506
2392.436, 36.21841
2394.365, 36.41218
2396.293, 36.62178
2398.222, 37.34874
2400.150, 38.67959
2402.079, 39.03205
2404.007, 37.88526
2405.936, 37.01712
2407.864, 36.34608
2409.792, 36.19303
2411.721, 36.79078
2413.649, 37.38774
2415.578, 37.91925
2417.506, 38.23714
2419.435, 38.23288
2421.363, 38.10603
2423.292, 37.93119
2425.220, 37.67678
2427.149, 37.15662
2429.077, 36.75182
2431.006, 36.86003
2432.934, 37.10114
2434.863, 36.97117
2436.791, 36.86951
2438.719, 37.56083
2440.648, 38.46679
2442.576, 38.60520
2444.505, 38.20160
2446.433, 37.78413
2448.362, 37.35873
2450.290, 36.89277
2452.219, 36.39457
2454.147, 36.37199
2456.076, 36.82789
2458.004, 37.35249
2459.933, 37.93886
2461.861, 38.19533
2463.790, 38.01990
2465.718, 37.84930
2467.646, 37.74742
2469.575, 37.63107
2471.503, 37.47195
2473.432, 37.34582
2475.360, 37.26876
2477.289, 37.22689
2479.217, 37.26809
2481.146, 37.23617
2483.074, 36.97557
2485.003, 36.76678
2486.931, 36.65543
2488.860, 36.72926
2490.788, 37.33994
2492.717, 37.77944
2494.645, 37.41386
2496.573, 36.83334
2498.502, 36.27093
2500.430, 36.00331
2502.359, 36.54208
2504.287, 37.31982
2506.216, 37.70527
2508.144, 37.75454
2510.073, 37.31539
2512.001, 36.72920
2513.930, 36.98692
2515.858, 37.76400
2517.787, 37.86000
2519.715, 37.47959
2521.644, 37.41772
2523.572, 37.63322
2525.500, 37.68660
2527.429, 37.57506
2529.357, 37.18484
2531.286, 36.41469
2533.214, 36.14856
2535.143, 36.40966
2537.071, 36.94280
2539.000, 37.80109
2540.928, 37.95398
2542.857, 36.99323
2544.785, 36.59503
2546.714, 37.44537
2548.642, 37.93410
2550.571, 38.00660
2552.499, 37.69628
2554.427, 36.71926
2556.356, 36.28544
2558.284, 36.88182
2560.213, 37.47772
2562.141, 37.97993
2564.070, 38.09291
2565.998, 37.30625
2567.927, 36.79346
2569.855, 37.11237
2571.784, 37.44268
2573.712, 37.50940
2575.641, 37.53201
2577.569, 37.52067
2579.498, 37.62464
2581.426, 37.97493
2583.354, 38.39366
2585.283, 39.05708
2587.211, 39.40513
2589.140, 38.85177
2591.068, 38.11114
2592.997, 37.54900
2594.925, 37.15739
2596.854, 36.93538
2598.782, 36.86698
2600.711, 36.95979
2602.639, 37.16521
2604.568, 37.55093
2606.496, 37.90360
2608.425, 38.01106
2610.353, 37.90987
2612.281, 37.38412
2614.210, 36.91063
2616.138, 37.40557
2618.067, 38.24531
2619.995, 38.28426
2621.924, 37.95771
2623.852, 38.12645
2625.781, 38.52851
2627.709, 38.76452
2629.638, 38.77515
2631.566, 38.24916
2633.495, 37.47985
2635.423, 37.27254
2637.352, 37.44707
2639.280, 37.49847
2641.208, 37.42720
2643.137, 37.04271
2645.065, 36.58980
2646.994, 37.12478
2648.922, 38.26360
2650.851, 38.24366
2652.779, 37.33841
2654.708, 37.15816
2656.636, 37.52016
2658.565, 37.26543
2660.493, 36.60567
2662.422, 36.79958
2664.350, 37.65769
2666.279, 37.64526
2668.207, 36.85686
2670.135, 36.34741
2672.064, 36.13381
2673.992, 36.53901
2675.921, 37.44480
2677.849, 38.13052
2679.778, 38.54602
2681.706, 38.22490
2683.635, 37.21401
2685.563, 36.96203
2687.492, 37.41301
2689.420, 37.60421
2691.349, 37.54608
2693.277, 37.51346
2695.206, 37.50196
2697.134, 37.18404
2699.063, 36.56580
2700.991, 36.49531
2702.919, 36.93743
2704.848, 37.08969
2706.776, 36.96931
2708.705, 36.70122
2710.633, 36.33752
2712.562, 36.98040
2714.490, 38.58977
2716.419, 38.64255
2718.347, 38.90676
2720.276, 38.96911
2722.204, 38.84059
2724.133, 37.94918
2726.061, 38.04288
2727.990, 37.74174
2729.918, 37.42452
2731.846, 37.65686
2733.775, 36.87641
2735.703, 37.10004
2737.632, 36.92277
2739.560, 36.10809
2741.489, 36.66363
2743.417, 37.01734
2745.346, 37.18016
2747.274, 36.58012
2749.203, 36.96515
2751.131, 36.95539
2753.060, 36.92948
2754.988, 37.45309
2756.917, 36.96405
2758.845, 37.47895
2760.773, 37.59308
2762.702, 37.89068
2764.630, 37.79105
2766.559, 37.81415
2768.487, 38.23450
2770.416, 38.43491
2772.344, 38.28955
2774.273, 38.59882
2776.201, 38.09586
2778.130, 38.30563
2780.058, 38.11182
2781.987, 38.02464
2783.915, 37.97781
2785.844, 37.76287
2787.772, 37.48952
2789.700, 37.29648
2791.629, 37.20102
2793.557, 37.32203
2795.486, 37.46159
2797.414, 37.34005
2799.343, 37.13902
2801.271, 36.92314
2803.200, 36.90480
2805.128, 37.55202
2807.057, 38.23843
2808.985, 38.64473
2810.914, 38.58274
2812.842, 37.39567
2814.771, 36.32066
2816.699, 36.38512
2818.627, 36.83208
2820.556, 37.58759
2822.484, 37.94839
2824.413, 36.91709
2826.341, 36.21521
2828.270, 37.39427
2830.198, 38.10293
2832.127, 36.95040
2834.055, 35.97229
2835.984, 36.01038
2837.912, 36.15047
2839.841, 36.02751
2841.769, 36.02414
2843.698, 36.35371
2845.626, 36.53437
2847.554, 36.36357
2849.483, 36.46641
2851.411, 37.25253
2853.340, 37.60589
2855.268, 37.03388
2857.197, 36.85220
2859.125, 37.19737
2861.054, 37.52382
2862.982, 37.06835
2864.911, 37.99937
2866.839, 38.52683
2868.768, 38.67242
2870.696, 37.29239
2872.625, 37.88238
2874.553, 37.68287
2876.481, 37.45099
2878.410, 38.31826
2880.338, 37.16012
2882.267, 38.00996
2884.195, 38.05824
2886.124, 38.47338
2888.052, 38.09414
2889.981, 37.96027
2891.909, 38.62101
2893.838, 38.84177
2895.766, 38.37108
2897.695, 38.80954
2899.623, 37.62365
2901.552, 37.86315
2903.480, 38.71763
2905.408, 38.28689
2907.337, 38.73987
2909.265, 38.85628
2911.194, 37.44312
2913.122, 38.69003
2915.051, 38.78656
2916.979, 37.70187
2918.908, 38.85764
2920.836, 37.93579
2922.765, 37.75554
2924.693, 38.13336
2926.622, 37.92940
2928.550, 38.64269
2930.479, 38.47232
2932.407, 38.22301
2934.335, 38.31823
2936.264, 37.43713
2938.192, 38.36732
2940.121, 38.06025
2942.049, 38.36819
2943.978, 38.81553
2945.906, 37.25370
2947.835, 37.10642
2949.763, 37.61403
2951.692, 37.69020
2953.620, 36.67533
2955.549, 37.63280
2957.477, 38.18669
2959.406, 38.35873
2961.334, 37.00512
2963.262, 37.62154
2965.191, 37.44848
2967.119, 37.24303
2969.048, 38.13675
2970.976, 37.00503
2972.905, 37.88131
2974.833, 37.95603
2976.762, 38.39761
2978.690, 38.04480
2980.619, 37.93737
2982.547, 38.62455
2984.476, 38.87175
2986.404, 38.42750
2988.333, 38.89240
2990.261, 37.73294
2992.189, 37.99886
2994.118, 38.87980
2996.046, 38.47548
2997.975, 38.95491
2999.903, 39.09775
3001.832, 37.71104
3003.760, 38.98438
3005.689, 39.10735
3007.617, 38.04909
3009.546, 39.23130
3011.474, 38.33590
3013.403, 38.18208
3015.331, 38.58633
3017.260, 38.40882
3019.188, 39.14854
3021.116, 39.00460
3023.045, 38.78173
3024.973, 37.95101
3026.902, 37.88646
3028.830, 37.91923
3030.759, 37.84407
3032.687, 37.80729
3034.616, 37.97989
3036.544, 37.90962
3038.473, 37.42397
3040.401, 37.34324
3042.330, 37.82281
3044.258, 37.88574
3046.187, 37.39930
3048.115, 37.80412
3050.043, 38.87202
3051.972, 38.77864
3053.900, 37.99144
3055.829, 37.99873
3057.757, 38.34533
3059.686, 38.18982
3061.614, 37.83375
3063.543, 37.46493
3065.471, 37.26997
3067.400, 37.47613
3069.328, 37.78755
3071.257, 38.21852
3073.185, 38.34838
3075.114, 37.79784
3077.042, 37.55447
3078.970, 38.33784
3080.899, 38.35768
3082.827, 37.43278
3084.756, 36.93502
3086.684, 36.97735
3088.613, 36.98564
3090.541, 36.98735
3092.470, 37.44026
3094.398, 38.10515
3096.327, 38.38870
3098.255, 38.39722
3100.184, 38.10052
3102.112, 37.83094
3104.041, 38.07011
3105.969, 38.27576
3107.897, 38.06244
3109.826, 37.83901
3111.754, 37.65236
3113.683, 37.78119
3115.611, 38.44106
3117.540, 38.57676
3119.468, 37.76664
3121.397, 37.50996
3123.325, 37.86659
3125.254, 38.20965
3127.182, 38.47284
3129.111, 38.37310
3131.039, 38.02147
3132.968, 37.31710
3134.896, 36.89523
3136.824, 38.14534
3138.753, 39.34964
3140.681, 38.96387
3142.610, 38.27955
3144.538, 37.66145
3146.467, 37.51633
3148.395, 38.12555
3150.324, 38.72387
3152.252, 39.38551
3154.181, 39.23773
3156.109, 38.28338
3158.038, 37.67573
3159.966, 37.45515
3161.895, 37.51116
3163.823, 37.76726
3165.751, 38.13241
3167.680, 38.43966
3169.608, 38.29003
3171.537, 38.25061
3173.465, 39.33779
3175.394, 39.69073
3177.322, 37.89046
3179.251, 37.00047
3181.179, 39.05670
3183.108, 39.71609
3185.036, 38.56620
3186.965, 38.04586
3188.893, 38.24524
3190.822, 37.88804
3192.750, 37.24282
3194.678, 37.55857
3196.607, 38.29652
3198.535, 38.72445
3200.464, 38.94920
3202.392, 39.10710
3204.321, 39.02987
3206.249, 38.48705
3208.178, 38.10781
3210.106, 38.13201
3212.035, 38.37463
3213.963, 38.91500
3215.892, 38.68316
3217.820, 37.69981
3219.749, 37.40902
3221.677, 37.65295
3223.605, 37.79394
3225.534, 37.95343
3227.462, 38.36914
3229.391, 38.80475
3231.319, 39.20695
3233.248, 39.28301
3235.176, 38.85579
3237.105, 38.28544
3239.033, 37.32736
3240.962, 37.21421
3242.890, 38.07673
3244.819, 37.99353
3246.747, 37.15696
3248.676, 37.90560
3250.604, 39.36629
3252.532, 39.21712
3254.461, 38.53497
3256.389, 38.34726
3258.318, 38.34526
3260.246, 38.55720
3262.175, 38.40763
3264.103, 37.45477
3266.032, 37.25953
3267.960, 38.56493
3269.889, 38.98668
3271.817, 38.64153
3273.746, 38.71795
3275.674, 39.07125
3277.603, 39.28923
3279.531, 39.42131
3281.459, 39.54317
3283.388, 39.59370
3285.316, 39.58482
3287.245, 39.38938
3289.173, 38.94002
3291.102, 38.37465
3293.030, 37.62863
3294.959, 37.57204
3296.887, 38.18530
3298.816, 38.68327
3300.744, 38.97768
3302.673, 38.84768
3304.601, 38.50002
3306.530, 37.98077
3308.458, 37.65931
3310.386, 37.73110
3312.315, 38.02772
3314.243, 38.60613
3316.172, 39.17708
3318.100, 39.73144
3320.029, 39.71092
3321.957, 39.26693
3323.886, 39.42779
3325.814, 39.78295
3327.743, 39.75684
3329.671, 39.26870
3331.600, 37.49406
3333.528, 36.55529
3335.457, 37.42957
3337.385, 38.37273
3339.313, 39.09182
3341.242, 39.35716
3343.170, 39.21999
3345.099, 39.38346
3347.027, 39.71017
3348.956, 39.99231
3350.884, 40.00666
3352.813, 39.27155
3354.741, 38.57620
3356.670, 38.36188
3358.598, 38.22993
3360.527, 38.07767
3362.455, 38.15522
3364.384, 38.48501
3366.312, 38.70124
3368.240, 38.83430
3370.169, 38.95477
3372.097, 39.12542
3374.026, 39.57030
3375.954, 39.84475
3377.883, 39.57555
3379.811, 39.42164
3381.740, 39.64044
3383.668, 39.61178
3385.597, 39.29700
3387.525, 39.49528
3389.454, 39.89648
3391.382, 39.34431
3393.311, 38.69802
3395.239, 39.16734
3397.167, 39.77302
3399.096, 40.32473
3401.024, 40.13657
3402.953, 38.86587
3404.881, 38.50656
3406.810, 39.18251
3408.738, 39.95443
3410.667, 40.51747
3412.595, 39.55845
3414.524, 38.58512
3416.452, 39.43926
3418.381, 40.02117
3420.309, 39.30122
3422.238, 38.85481
3424.166, 39.03117
3426.094, 39.39942
3428.023, 39.87716
3429.951, 39.82692
3431.880, 39.55371
3433.808, 39.49438
3435.737, 39.54934
3437.665, 39.71087
3439.594, 39.80335
3441.522, 39.79978
3443.451, 39.55677
3445.379, 39.09535
3447.308, 39.24611
3449.236, 39.71170
3451.165, 39.40711
3453.093, 39.05621
3455.021, 39.81146
3456.950, 40.10574
3458.878, 38.44833
3460.807, 37.86365
3462.735, 38.74448
3464.664, 39.09992
3466.592, 38.99039
3468.521, 39.35410
3470.449, 40.02072
3472.378, 41.11009
3474.306, 41.74994
3476.235, 40.98961
3478.163, 40.50405
3480.092, 40.73387
3482.020, 40.28045
3483.948, 39.16521
3485.877, 39.42188
3487.805, 40.14202
3489.734, 39.53748
3491.662, 38.88761
3493.591, 39.21098
3495.519, 39.52370
3497.448, 39.51513
3499.376, 39.44666
3501.305, 39.34040
3503.233, 39.42143
3505.162, 39.57853
3507.090, 39.39552
3509.019, 39.46333
3510.947, 40.48135
3512.875, 41.23034
3514.804, 41.31491
3516.732, 40.88910
3518.661, 40.05176
3520.589, 40.00061
3522.518, 40.28157
3524.446, 39.59476
3526.375, 38.98785
3528.303, 39.41542
3530.232, 39.88178
3532.160, 40.20515
3534.089, 39.95411
3536.017, 39.18364
3537.946, 39.70766
3539.874, 40.81201
3541.802, 41.08219
3543.731, 41.11529
3545.659, 41.32705
3547.588, 41.43639
3549.516, 41.41178
3551.445, 40.99675
3553.373, 40.26979
3555.302, 39.93354
3557.230, 40.05851
3559.159, 41.13843
3561.087, 41.94055
3563.016, 41.57733
3564.944, 41.39541
3566.873, 41.79436
3568.801, 41.70565
3570.729, 41.25865
3572.658, 41.12638
3574.586, 41.03617
3576.515, 40.23489
3578.443, 40.25014
3580.372, 42.27594
3582.300, 42.73201
3584.229, 41.08269
3586.157, 40.54397
3588.086, 40.77235
3590.014, 41.05158
3591.943, 41.23957
3593.871, 41.08986
3595.800, 41.17744
3597.728, 42.06970
3599.656, 42.14528
3601.585, 41.50919
3603.513, 40.48878
3605.442, 39.80943
3607.370, 41.20275
3609.299, 42.33162
3611.227, 41.82578
3613.156, 41.28625
3615.084, 40.88079
3617.013, 40.63691
3618.941, 40.47974
3620.870, 40.09065
3622.798, 39.87473
3624.727, 40.02668
3626.655, 40.74487
3628.583, 42.37700
3630.512, 42.73906
3632.440, 41.99946
3634.369, 42.04748
3636.297, 42.20456
3638.226, 41.34845
3640.154, 40.73417
3642.083, 41.23927
3644.011, 41.29202
3645.940, 40.91189
3647.868, 42.01515
3649.797, 43.50689
3651.725, 42.80107
3653.654, 41.75684
3655.582, 41.45975
3657.510, 41.05447
3659.439, 40.41216
3661.367, 40.68205
3663.296, 41.50789
3665.224, 41.89525
3667.153, 42.02644
3669.081, 41.84290
3671.010, 41.90520
3672.938, 42.32903
3674.867, 42.99470
3676.795, 43.65952
3678.724, 43.10638
3680.652, 42.22100
3682.581, 41.73486
3684.509, 41.61937
3686.438, 41.95891
3688.366, 41.94202
3690.294, 41.59273
3692.223, 41.57371
3694.151, 41.69125
3696.080, 41.65553
3698.008, 41.78968
3699.937, 42.39956
3701.865, 42.40057
3703.794, 41.74657
3705.722, 40.62879
3707.651, 40.04696
3709.579, 42.21306
3711.508, 43.75575
3713.436, 42.79801
3715.365, 42.16494
3717.293, 42.12136
3719.221, 43.04707
3721.150, 43.98506
3723.078, 43.13361
3725.007, 42.38920
3726.935, 42.85499
3728.864, 42.82022
3730.792, 42.25546
3732.721, 42.42545
3734.649, 42.84907
3736.578, 42.84563
3738.506, 42.65031
3740.435, 42.14320
3742.363, 42.23175
3744.292, 42.88603
3746.220, 43.29341
3748.148, 43.42987
3750.077, 43.13276
3752.005, 42.87794
3753.934, 42.95211
3755.862, 42.76143
3757.791, 42.37168
3759.719, 42.43384
3761.648, 42.72162
3763.576, 43.19545
3765.505, 43.21021
3767.433, 42.25176
3769.362, 41.88260
3771.290, 42.13430
3773.219, 42.97118
3775.147, 43.66766
3777.075, 43.43593
3779.004, 43.07265
3780.932, 42.71418
3782.861, 42.93069
3784.789, 43.41432
3786.718, 42.94345
3788.646, 42.51922
3790.575, 42.93403
3792.503, 43.41887
3794.432, 43.86073
3796.360, 43.55634
3798.289, 43.03772
3800.217, 43.79083
3802.146, 44.27192
3804.074, 43.58795
3806.002, 42.56284
3807.931, 41.36836
3809.859, 42.28945
3811.788, 43.60521
3813.716, 42.16400
3815.645, 41.50415
3817.573, 43.36714
3819.502, 43.54521
3821.430, 42.34763
3823.359, 43.26782
3825.287, 44.41579
3827.216, 43.49994
3829.144, 43.27642
3831.073, 44.55133
3833.001, 44.41378
3834.929, 43.43748
3836.858, 42.87016
3838.786, 42.86201
3840.715, 43.66038
3842.643, 44.52334
3844.572, 45.29111
3846.500, 44.53808
3848.429, 43.50115
3850.357, 43.88141
3852.286, 44.28776
3854.214, 44.30094
3856.143, 44.42011
3858.071, 44.58924
3860.000, 44.39424
3861.928, 44.16597
3863.856, 44.34546
3865.785, 43.88057
3867.713, 42.77702
3869.642, 43.29633
3871.570, 44.49709
3873.499, 44.99117
3875.427, 45.17274
3877.356, 45.18256
3879.284, 44.71000
3881.213, 44.01276
3883.141, 44.20677
3885.070, 44.56549
3886.998, 44.48656
3888.927, 44.65910
3890.855, 45.17049
3892.783, 45.40649
3894.712, 45.34212
3896.640, 44.50262
3898.569, 44.33825
3900.497, 45.66450
3902.426, 45.51527
3904.354, 44.49343
3906.283, 44.56987
3908.211, 44.94835
3910.140, 45.39599
3912.068, 45.21868
3913.997, 44.38201
3915.925, 45.02977
3917.854, 45.89318
3919.782, 45.52496
3921.710, 45.55439
3923.639, 46.29358
3925.567, 46.89170
3927.496, 47.15919
3929.424, 46.50463
3931.353, 45.98499
3933.281, 46.44012
3935.210, 46.92198
3937.138, 47.12324
3939.067, 46.30255
3940.995, 45.70774
3942.924, 46.12422
3944.852, 45.95104
3946.781, 45.52684
3948.709, 45.91050
3950.637, 46.42682
3952.566, 46.79606
3954.494, 47.31649
3956.423, 47.74913
3958.351, 47.13625
3960.280, 46.24008
3962.208, 46.12616
3964.137, 46.55481
3966.065, 46.74578
3967.994, 46.16327
3969.922, 45.74361
3971.851, 45.86637
3973.779, 46.28853
3975.708, 47.57268
3977.636, 47.87984
3979.564, 46.82521
3981.493, 46.48783
3983.421, 46.65951
3985.350, 46.73663
3987.278, 46.71774
3989.207, 46.71141
3991.135, 47.28692
3993.064, 47.74408
3994.992, 47.33648
3996.921, 47.07789
3998.849, 47.31716
4000.778, 47.79997
4002.706, 48.29042
4004.635, 48.34291
4006.563, 47.75728
4008.491, 46.65425
4010.420, 46.93920
4012.348, 48.03808
4014.277, 47.80758
4016.205, 47.67118
4018.134, 48.01469
4020.062, 48.53304
4021.991, 48.90973
4023.919, 47.67776
4025.848, 47.03026
4027.776, 46.95794
4029.705, 47.62446
4031.633, 48.79474
4033.562, 48.65694
4035.490, 48.04426
4037.418, 47.78228
4039.347, 48.01107
4041.275, 48.38607
4043.204, 48.57236
4045.132, 48.96360
4047.061, 49.80563
4048.989, 49.44556
4050.918, 48.38257
4052.846, 48.75619
4054.775, 49.13236
4056.703, 48.65852
4058.632, 48.53857
4060.560, 48.75852
4062.489, 48.82480
4064.417, 48.83299
4066.345, 48.63439
4068.274, 49.18235
4070.202, 50.31541
4072.131, 50.75017
4074.059, 50.74154
4075.988, 50.37706
4077.916, 49.77583
4079.845, 49.09081
4081.773, 49.37067
4083.702, 49.76692
4085.630, 49.44159
4087.559, 49.30929
4089.487, 49.49693
4091.416, 49.89786
4093.344, 50.03432
4095.272, 48.92680
4097.201, 48.57437
4099.129, 49.32021
4101.058, 49.63058
4102.986, 49.73568
4104.915, 50.41433
4106.843, 50.33184
4108.772, 49.32215
4110.700, 49.32067
4112.629, 49.71177
4114.557, 50.03257
4116.486, 50.57059
4118.414, 51.26902
4120.343, 50.95549
4122.271, 50.35417
4124.200, 50.40390
4126.128, 50.80044
4128.057, 51.54425
4129.985, 52.20935
4131.914, 52.79245
4133.842, 52.27736
4135.771, 51.45691
4137.699, 52.39505
4139.627, 52.12724
4141.556, 50.97938
4143.484, 50.38863
4145.413, 51.10410
4147.341, 53.06517
4149.270, 53.06800
4151.198, 52.32199
4153.126, 52.05407
4155.055, 51.71431
4156.983, 51.53058
4158.912, 52.22435
4160.840, 53.26266
4162.769, 53.48556
4164.697, 53.29444
4166.626, 52.67742
4168.554, 52.96930
4170.483, 53.81476
4172.411, 53.95837
4174.340, 53.99357
4176.268, 54.35265
4178.197, 54.01586
4180.125, 53.51389
4182.054, 53.98687
4183.982, 53.96441
4185.911, 52.68069
4187.839, 52.94055
4189.768, 54.00570
4191.696, 53.98288
4193.625, 53.45191
4195.553, 52.88615
4197.481, 52.34167
4199.410, 52.23990
4201.338, 54.38234
4203.267, 54.96485
4205.195, 53.28957
4207.124, 53.62233
4209.052, 54.57902
4210.980, 54.92802
4212.909, 54.34043
4214.837, 53.16013
4216.766, 53.46899
4218.694, 54.32434
4220.623, 55.24408
4222.551, 55.64319
4224.480, 55.61513
4226.408, 54.78767
4228.337, 54.11280
4230.265, 54.13361
4232.194, 55.24851
4234.122, 56.76173
4236.051, 55.67630
4237.979, 55.05822
4239.908, 56.79023
4241.836, 56.75199
4243.765, 55.73991
4245.693, 56.11675
4247.622, 56.27229
4249.550, 55.66068
4251.479, 56.42493
4253.407, 57.48521
4255.335, 57.06089
4257.264, 56.61784
4259.192, 56.45146
4261.121, 55.98228
4263.049, 55.50625
4264.978, 55.17194
4266.906, 55.36790
4268.834, 56.07032
4270.763, 57.30062
4272.691, 58.13696
4274.620, 58.04793
4276.548, 57.07952
4278.477, 55.84514
4280.405, 56.26030
4282.334, 56.52864
4284.262, 55.83277
4286.191, 56.39775
4288.119, 57.56485
4290.048, 58.31719
4291.976, 58.27099
4293.905, 57.47121
4295.833, 57.77263
4297.762, 58.22922
4299.690, 57.78257
4301.619, 57.06957
4303.547, 56.52077
4305.476, 58.41457
4307.404, 59.74321
4309.333, 58.36990
4311.261, 57.98601
4313.189, 58.39368
4315.118, 58.92234
4317.046, 58.59390
4318.975, 57.02259
4320.903, 57.35839
4322.832, 58.33905
4324.760, 58.31711
4326.688, 58.25838
4328.617, 58.29771
4330.545, 58.21020
4332.474, 58.13580
4334.402, 58.00233
4336.331, 58.70866
4338.259, 59.78376
4340.188, 59.75958
4342.116, 59.97182
4344.045, 60.99897
4345.973, 61.44179
4347.902, 61.46598
4349.830, 61.19754
4351.759, 60.66542
4353.687, 59.99639
4355.616, 60.02559
4357.544, 60.46560
4359.473, 61.48826
4361.401, 60.65022
4363.330, 59.07556
4365.258, 59.07833
4367.187, 59.94722
4369.115, 61.49863
4371.043, 60.78753
4372.972, 59.63105
4374.900, 59.35618
4376.829, 60.03181
4378.757, 61.21248
4380.686, 61.80272
4382.614, 61.61814
4384.542, 60.62670
4386.471, 61.36704
4388.399, 62.01112
4390.328, 59.35019
4392.256, 58.83136
4394.185, 60.45638
4396.113, 61.48863
4398.042, 61.24731
4399.970, 59.01731
4401.899, 58.81326
4403.827, 59.87477
4405.756, 61.07756
4407.684, 61.89510
4409.613, 62.15636
4411.541, 61.00753
4413.470, 60.10368
4415.398, 60.92122
4417.327, 60.35078
4419.255, 59.45568
4421.184, 60.80600
4423.112, 62.03189
4425.041, 62.61730
4426.969, 62.82612
4428.897, 62.37610
4430.826, 60.84632
4432.754, 60.76569
4434.683, 61.46013
4436.611, 61.29047
4438.540, 61.04958
4440.468, 60.92579
4442.396, 60.98811
4444.325, 60.99818
4446.253, 60.58367
4448.182, 61.27879
4450.110, 62.48695
4452.039, 63.03611
4453.967, 63.26744
4455.896, 63.20861
4457.824, 61.94373
4459.753, 60.66046
4461.681, 59.97141
4463.610, 60.62841
4465.538, 61.91425
4467.467, 62.84150
4469.395, 63.10538
4471.324, 62.75740
4473.252, 62.23053
4475.181, 61.88734
4477.109, 61.92638
4479.038, 61.31758
4480.966, 60.78568
4482.895, 61.52954
4484.823, 62.09635
4486.751, 62.26196
4488.680, 61.90667
4490.608, 61.55866
4492.537, 61.37062
4494.465, 62.23210
4496.394, 62.91370
4498.322, 62.03658
4500.250, 61.28828
4502.179, 60.94234
4504.107, 61.18356
4506.036, 62.24562
4507.964, 63.82295
4509.893, 61.92043
4511.821, 60.54308
4513.750, 62.99298
4515.678, 63.20979
4517.607, 62.43144
4519.535, 63.28663
4521.464, 63.99544
4523.392, 64.16475
4525.321, 62.65869
4527.249, 61.82362
4529.178, 62.58689
4531.106, 62.70987
4533.035, 62.62719
4534.963, 62.76606
4536.892, 63.03180
4538.820, 63.23365
4540.749, 62.96865
4542.677, 62.44338
4544.605, 61.95159
4546.534, 64.20493
4548.462, 65.65296
4550.391, 64.18961
4552.319, 62.93615
4554.248, 62.41319
4556.176, 63.28378
4558.104, 64.12469
4560.033, 64.61100
4561.961, 64.22425
4563.890, 63.98643
4565.818, 63.98640
4567.747, 62.59066
4569.675, 61.72512
4571.604, 62.74352
4573.532, 63.59042
4575.461, 64.04989
4577.389, 63.78032
4579.318, 63.84147
4581.246, 64.01585
4583.175, 62.99681
4585.103, 63.72057
4587.032, 66.00078
4588.960, 65.54168
4590.889, 63.06838
4592.817, 64.72522
4594.746, 65.65564
4596.674, 65.89870
4598.603, 63.39563
4600.531, 64.43861
4602.459, 64.06049
4604.388, 63.62410
4606.316, 65.16618
4608.245, 63.06252
4610.173, 64.57322
4612.102, 64.64114
4614.030, 65.36938
4615.958, 64.66775
4617.887, 64.40775
4619.815, 65.57809
4621.744, 65.95645
4623.672, 65.09022
4625.601, 65.86044
4627.529, 63.70683
4629.458, 64.11892
4631.386, 65.63799
4633.315, 64.84365
4635.243, 65.64001
4637.172, 65.83054
4639.100, 63.26785
4641.029, 65.49329
4642.957, 65.64802
4644.886, 63.67658
4646.814, 65.73796
4648.743, 64.05964
4650.671, 63.71617
4652.600, 64.37724
4654.528, 63.99111
4656.457, 65.25603
4658.385, 64.43099
4660.313, 64.11948
4662.242, 63.69353
4664.170, 64.09257
4666.099, 64.27454
4668.027, 64.05887
4669.956, 64.97845
4671.884, 65.35996
4673.813, 64.38844
4675.741, 64.69368
4677.669, 65.31332
4679.598, 65.57734
4681.526, 65.52084
4683.455, 65.28542
4685.383, 64.78658
4687.312, 65.39977
4689.240, 66.18208
4691.169, 64.63712
4693.097, 64.79519
4695.026, 66.17355
4696.954, 64.83657
4698.883, 64.53439
4700.811, 65.74261
4702.740, 64.14286
4704.668, 63.03157
4706.597, 63.66174
4708.525, 64.00687
4710.454, 63.69061
4712.382, 62.48767
4714.311, 62.80779
4716.239, 63.86877
4718.167, 65.26968
4720.096, 65.08157
4722.024, 64.26444
4723.953, 63.99749
4725.881, 63.99392
4727.810, 64.08637
4729.738, 64.08650
4731.667, 63.81895
4733.595, 63.68237
4735.523, 65.22793
4737.452, 66.49719
4739.380, 66.98327
4741.309, 65.71490
4743.237, 65.42766
4745.166, 66.65844
4747.094, 66.31305
4749.023, 65.19762
4750.951, 63.67426
4752.880, 64.05801
4754.808, 64.93606
4756.737, 65.56037
4758.665, 65.38332
4760.594, 64.96995
4762.522, 64.69559
4764.451, 64.97172
4766.379, 65.21932
4768.308, 64.77600
4770.236, 65.67252
4772.165, 66.58330
4774.093, 65.30108
4776.021, 64.11409
4777.950, 63.97522
4779.878, 66.89177
4781.807, 66.85256
4783.735, 65.09618
4785.664, 65.89663
4787.592, 66.08303
4789.521, 65.63610
4791.449, 66.26782
4793.377, 66.04976
4795.306, 65.04540
4797.234, 64.50102
4799.163, 64.75349
4801.091, 65.56834
4803.020, 65.12804
4804.948, 64.52277
4806.877, 64.14314
4808.805, 64.71324
4810.734, 64.84914
4812.662, 64.21445
4814.591, 65.61535
4816.519, 66.66827
4818.448, 66.46629
4820.376, 65.39572
4822.305, 64.44545
4824.233, 64.08097
4826.162, 64.92448
4828.090, 65.80106
4830.019, 66.10246
4831.947, 65.70370
4833.875, 65.27216
4835.804, 65.15857
4837.732, 66.17046
4839.661, 66.44144
4841.589, 64.72550
4843.518, 64.12523
4845.446, 64.10490
4847.375, 64.17593
4849.303, 64.90490
4851.231, 65.42673
4853.160, 65.00835
4855.088, 65.71671
4857.017, 66.64436
4858.945, 67.11762
4860.874, 66.36166
4862.802, 65.37426
4864.731, 64.95635
4866.659, 65.57265
4868.588, 66.07157
4870.516, 65.19975
4872.445, 65.07221
4874.373, 65.32768
4876.302, 65.63731
4878.230, 65.66360
4880.159, 65.55315
4882.087, 65.29829
4884.016, 65.87959
4885.944, 66.41455
4887.873, 66.10670
4889.801, 66.35937
4891.729, 66.48421
4893.658, 65.57691
4895.586, 65.00604
4897.515, 64.92146
4899.443, 65.46440
4901.372, 65.37663
4903.300, 64.93531
4905.229, 64.28814
4907.157, 64.33568
4909.085, 64.93885
4911.014, 66.01305
4912.942, 66.57940
4914.871, 66.51295
4916.799, 65.68365
4918.728, 65.56122
4920.656, 65.85167
4922.585, 66.37050
4924.513, 65.11875
4926.442, 64.10995
4928.370, 64.49158
4930.299, 66.53384
4932.227, 67.49232
4934.156, 65.94338
4936.084, 66.38551
4938.013, 66.38576
4939.941, 65.29659
4941.870, 67.60712
4943.798, 68.81108
4945.727, 67.31949
4947.655, 65.92966
4949.583, 65.98442
4951.512, 67.20513
4953.440, 66.02995
4955.369, 65.39983
4957.297, 65.77783
4959.226, 64.60024
4961.154, 65.42131
4963.083, 67.75918
4965.011, 67.23684
4966.939, 66.59505
4968.868, 66.38963
4970.796, 66.85588
4972.725, 67.22023
4974.653, 67.09943
4976.582, 65.61736
4978.510, 66.21111
4980.439, 67.47649
4982.367, 66.61503
4984.296, 65.91386
4986.224, 65.61292
4988.153, 65.83717
4990.081, 65.53951
4992.010, 65.78530
4993.938, 67.92464
4995.867, 67.05845
4997.795, 66.10059
4999.724, 67.11020
5001.652, 66.47759
5003.581, 66.32726
5005.509, 67.52718
5007.438, 67.02379
5009.366, 65.70717
5011.294, 64.24235
5013.223, 65.42957
5015.151, 66.58261
5017.080, 66.93459
5019.008, 66.03091
5020.937, 66.73623
5022.865, 68.28443
5024.793, 66.59295
5026.722, 66.18719
5028.650, 66.94314
5030.579, 67.67372
5032.507, 67.34779
5034.436, 66.63504
5036.364, 66.21413
5038.293, 67.39280
5040.221, 68.03244
5042.150, 66.44873
5044.078, 66.30778
5046.007, 66.77416
5047.935, 67.25594
5049.864, 67.77699
5051.792, 67.69882
5053.721, 66.89927
5055.649, 66.01039
5057.578, 66.25991
5059.506, 67.30480
5061.435, 67.32565
5063.363, 67.32192
5065.292, 67.39092
5067.220, 67.66902
5069.148, 66.28102
5071.077, 64.89499
5073.005, 65.58167
5074.934, 67.52681
5076.862, 68.86777
5078.791, 68.06379
5080.719, 68.44949
5082.647, 68.25895
5084.576, 66.93223
5086.504, 66.85417
5088.433, 66.34078
5090.361, 65.47240
5092.290, 66.49416
5094.218, 67.98737
5096.147, 68.86228
5098.075, 67.08443
5100.004, 67.49078
5101.932, 68.76759
5103.861, 68.79881
5105.789, 69.37199
5107.718, 69.86182
5109.646, 69.82140
5111.575, 68.02859
5113.503, 67.23415
5115.432, 67.95376
5117.360, 67.27184
5119.289, 66.96628
5121.217, 67.48978
5123.146, 69.45733
5125.074, 69.53508
5127.002, 68.50581
5128.931, 67.84151
5130.859, 68.43110
5132.788, 69.28979
5134.716, 69.65724
5136.645, 68.14505
5138.573, 67.21130
5140.501, 67.74637
5142.430, 69.00311
5144.358, 68.16033
5146.287, 66.48078
5148.215, 69.08924
5150.144, 70.02010
5152.072, 69.56332
5154.001, 68.73544
5155.929, 67.48745
5157.858, 66.61108
5159.786, 66.61839
5161.715, 68.37031
5163.643, 69.29776
5165.572, 68.73006
5167.500, 66.62968
5169.429, 68.76949
5171.357, 72.04664
5173.286, 69.15406
5175.214, 68.15405
5177.143, 68.65603
5179.071, 69.62482
5181.000, 69.30327
5182.928, 68.96784
5184.856, 69.15959
5186.785, 69.38057
5188.713, 69.99529
5190.642, 70.59036
5192.570, 70.06804
5194.499, 70.14188
5196.427, 70.34842
5198.355, 70.19125
5200.284, 67.60780
5202.212, 67.33837
5204.141, 70.66344
5206.069, 70.61189
5207.998, 69.87675
5209.926, 69.23268
5211.855, 68.73889
5213.783, 69.55211
5215.712, 70.34475
5217.640, 69.72237
5219.569, 69.29931
5221.497, 69.60551
5223.426, 70.55571
5225.354, 70.70747
5227.283, 70.89146
5229.211, 70.71573
5231.140, 68.61013
5233.068, 68.39955
5234.997, 69.22762
5236.925, 70.24168
5238.854, 71.07008
5240.782, 70.79002
5242.710, 69.81229
5244.639, 70.82188
5246.567, 70.79933
5248.496, 70.41332
5250.424, 71.45246
5252.353, 71.33955
5254.281, 70.67736
5256.209, 69.91579
5258.138, 69.18378
5260.066, 69.78635
5261.995, 71.10808
5263.923, 71.09599
5265.852, 71.40671
5267.780, 71.58618
5269.709, 71.13656
5271.637, 70.66579
5273.566, 69.82859
5275.494, 69.08266
5277.423, 71.14690
5279.351, 69.90562
5281.280, 68.07815
5283.208, 70.33177
5285.137, 72.26559
5287.065, 71.09830
5288.994, 67.09703
5290.922, 69.96400
5292.851, 71.60258
5294.779, 71.25127
5296.708, 69.75652
5298.636, 71.06318
5300.564, 71.61131
5302.493, 69.48802
5304.421, 69.62569
5306.350, 70.01010
5308.278, 70.20200
5310.207, 70.33955
5312.135, 70.73019
5314.063, 70.66427
5315.992, 69.77800
5317.920, 71.72925
5319.849, 72.51810
5321.777, 71.77746
5323.706, 71.19467
5325.634, 70.50918
5327.563, 70.27354
5329.491, 70.77165
5331.420, 70.56850
5333.348, 70.05538
5335.277, 69.42020
5337.205, 68.31222
5339.134, 69.84720
5341.062, 71.13615
5342.991, 70.05604
5344.919, 69.17097
5346.848, 69.77424
5348.776, 71.00782
5350.705, 70.45389
5352.633, 69.22696
5354.562, 68.72025
5356.490, 69.74104
5358.418, 69.37358
5360.347, 69.34179
5362.275, 70.08337
5364.204, 71.74035
5366.132, 70.88224
5368.061, 70.18100
5369.989, 71.11800
5371.917, 70.94630
5373.846, 70.63663
5375.774, 70.88339
5377.703, 72.86182
5379.631, 71.09127
5381.560, 69.05579
5383.488, 68.68040
5385.417, 70.81406
5387.345, 71.07180
5389.274, 70.86415
5391.202, 72.69627
5393.131, 71.73778
5395.059, 70.22604
5396.988, 69.24851
5398.916, 69.18877
5400.845, 69.67455
5402.773, 70.90329
5404.702, 72.77429
5406.630, 71.82975
5408.559, 71.08370
5410.487, 71.11213
5412.416, 71.40002
5414.344, 71.67768
5416.272, 71.82017
5418.201, 71.90141
5420.129, 73.14063
5422.058, 72.21367
5423.986, 70.56280
5425.915, 70.35714
5427.843, 69.88269
5429.771, 70.86926
5431.700, 72.55524
5433.628, 70.64806
5435.557, 70.32138
5437.485, 70.84047
5439.414, 71.38773
5441.342, 72.27213
5443.271, 71.58375
5445.199, 70.40249
5447.128, 70.54191
5449.056, 70.96903
5450.985, 69.99935
5452.913, 68.75895
5454.842, 73.80912
5456.770, 74.12178
5458.699, 72.20570
5460.627, 70.74544
5462.556, 72.54151
5464.484, 72.23766
5466.413, 70.70113
5468.341, 70.34995
5470.270, 72.66953
5472.198, 72.40014
5474.126, 69.84155
5476.055, 71.03206
5477.983, 71.18098
5479.912, 71.04634
5481.840, 71.28831
5483.769, 71.76248
5485.697, 72.54247
5487.625, 72.93900
5489.554, 72.37712
5491.482, 72.29583
5493.411, 72.37766
5495.339, 72.40068
5497.268, 72.06632
5499.196, 72.85697
5501.125, 72.44779
5503.053, 69.42728
5504.982, 71.15653
5506.910, 72.15935
5508.839, 72.47482
5510.767, 70.04414
5512.696, 71.15953
5514.624, 70.85381
5516.553, 70.48985
5518.481, 72.10429
5520.410, 70.07307
5522.338, 71.65614
5524.267, 71.79648
5526.195, 72.59709
5528.124, 71.96788
5530.052, 71.78027
5531.980, 73.02299
5533.909, 73.47378
5535.837, 72.67992
5537.766, 73.52255
5539.694, 70.16796
5541.623, 70.04774
5543.551, 71.18184
5545.479, 72.41923
5547.408, 73.02076
5549.336, 73.17506
5551.265, 71.85266
5553.193, 71.43140
5555.122, 74.17898
5557.050, 71.66610
5558.979, 70.89411
5560.907, 71.67468
5562.836, 71.35023
5564.764, 72.00577
5566.693, 72.25883
5568.621, 71.86216
5570.550, 71.15003
5572.478, 71.49266
5574.407, 71.68143
5576.335, 71.35437
5578.264, 70.88502
5580.192, 70.48886
5582.121, 71.38565
5584.049, 73.09386
5585.978, 71.84860
5587.906, 73.46635
5589.834, 73.78106
5591.763, 70.92924
5593.691, 69.53806
5595.620, 69.88594
5597.548, 71.57494
5599.477, 73.83532
5601.405, 72.13830
5603.333, 71.05588
5605.262, 70.27103
5607.190, 69.14311
5609.119, 70.64422
5611.047, 71.83089
5612.976, 71.51885
5614.904, 69.72890
5616.833, 71.93206
5618.761, 71.85564
5620.690, 70.36292
5622.618, 69.67289
5624.547, 71.39076
5626.475, 72.32883
5628.404, 72.51296
5630.332, 72.85023
5632.261, 72.62724
5634.189, 72.10498
5636.118, 71.35538
5638.046, 70.46342
5639.975, 70.88491
5641.903, 71.61250
5643.832, 72.01570
5645.760, 71.73443
5647.688, 70.83205
5649.617, 71.44112
5651.545, 72.46236
5653.474, 72.00636
5655.402, 70.93555
5657.331, 71.75924
5659.259, 72.80927
5661.188, 71.42227
5663.116, 70.63074
5665.044, 71.73556
5666.973, 72.55495
5668.901, 70.76128
5670.830, 70.01965
5672.758, 70.79057
5674.687, 71.64421
5676.615, 71.27935
5678.544, 71.12538
5680.472, 72.21734
5682.401, 72.69788
5684.329, 70.95843
5686.258, 71.80630
5688.186, 71.79127
5690.115, 70.80639
5692.043, 72.44820
5693.972, 73.36358
5695.900, 73.59161
5697.829, 71.07349
5699.757, 72.10145
5701.686, 71.70829
5703.614, 71.25687
5705.542, 72.78391
5707.471, 70.66521
5709.399, 72.16088
5711.328, 72.21375
5713.256, 72.92697
5715.185, 72.21029
5717.113, 71.93527
5719.042, 73.09057
5720.970, 73.45390
5722.898, 72.57263
5724.827, 73.32780
5726.755, 71.15917
5728.684, 71.55621
5730.612, 73.06026
5732.541, 72.25087
5734.469, 73.03220
5736.398, 73.20769
5738.326, 70.62996
5740.255, 70.94374
5742.183, 72.14462
5744.112, 72.73817
5746.040, 72.67603
5747.969, 72.39487
5749.897, 71.73870
5751.826, 71.95630
5753.754, 71.86379
5755.683, 71.00721
5757.611, 71.09156
5759.540, 71.19107
5761.468, 71.74845
5763.396, 72.53611
5765.325, 72.48988
5767.253, 72.83933
5769.182, 71.66125
5771.110, 70.07327
5773.039, 70.43177
5774.967, 71.24052
5776.896, 72.45444
5778.824, 72.20547
5780.752, 69.54452
5782.681, 69.74305
5784.609, 70.77993
5786.538, 71.28244
5788.466, 71.03561
5790.395, 71.92802
5792.323, 72.24528
5794.252, 71.90105
5796.180, 71.33296
5798.109, 71.32457
5800.037, 71.78806
5801.966, 72.26027
5803.894, 71.76328
5805.823, 69.67752
5807.751, 70.74534
5809.680, 70.46655
5811.608, 69.99686
5813.537, 70.55447
5815.465, 71.21609
5817.394, 72.61316
5819.322, 71.97198
5821.250, 70.09860
5823.179, 70.52561
5825.107, 71.92760
5827.036, 72.68509
5828.964, 72.19487
5830.893, 70.61143
5832.821, 70.72955
5834.750, 71.43349
5836.678, 71.33981
5838.606, 70.35486
5840.535, 70.36361
5842.463, 70.58215
5844.392, 70.46623
5846.320, 70.66891
5848.249, 72.27938
5850.177, 72.98730
5852.106, 70.14384
5854.034, 68.73752
5855.963, 71.12136
5857.891, 70.24585
5859.820, 71.83201
5861.748, 71.61000
5863.677, 69.90130
5865.605, 70.19431
5867.534, 70.94328
5869.462, 70.25878
5871.391, 70.17309
5873.319, 71.87540
5875.248, 72.38708
5877.176, 71.74109
5879.104, 70.52021
5881.033, 69.69318
5882.961, 70.37402
5884.890, 71.58878
5886.818, 71.68755
5888.747, 71.34752
5890.675, 71.05880
5892.604, 68.53165
5894.532, 69.33252
5896.460, 71.03882
5898.389, 71.80782
5900.317, 70.64617
5902.246, 70.23911
5904.174, 70.53354
5906.103, 69.89578
5908.031, 68.59452
5909.960, 70.96843
5911.888, 71.07324
5913.817, 70.34093
5915.745, 70.43093
5917.674, 71.85409
5919.602, 69.87290
5921.531, 69.78696
5923.459, 69.98406
5925.388, 69.40038
5927.316, 68.74061
5929.245, 69.88799
5931.173, 71.67204
5933.102, 71.58878
5935.030, 69.23476
5936.958, 70.67514
5938.887, 70.20225
5940.815, 69.56801
5942.744, 69.16854
5944.672, 68.45897
5946.601, 69.82522
5948.529, 69.46457
5950.458, 69.14137
5952.386, 70.74035
5954.314, 71.61295
5956.243, 71.79812
5958.171, 69.23721
5960.100, 70.22231
5962.028, 69.78637
5963.957, 69.29210
5965.885, 70.77634
5967.814, 68.61481
5969.742, 70.06766
5971.671, 70.07771
5973.599, 70.74810
5975.528, 69.98860
5977.456, 69.67076
5979.385, 70.78324
5981.313, 71.10374
5983.242, 70.17963
5985.170, 70.89201
5987.099, 68.68053
5989.027, 69.03479
5990.956, 70.49598
5992.884, 69.64380
5994.813, 70.38228
5996.741, 70.51496
5998.669, 67.89444
6000.598, 70.06200
6002.526, 70.15890
6004.455, 68.12958
6006.383, 70.13313
6008.312, 68.39693
6010.240, 67.99560
6012.168, 68.59885
6014.097, 68.15483
6016.025, 69.36192
6017.954, 68.97838
6019.882, 68.45277
6021.811, 68.54730
6023.739, 66.88448
6025.668, 68.48194
6027.596, 67.85235
6029.525, 68.32977
6031.453, 69.05814
6033.382, 68.64233
6035.310, 69.60483
6037.239, 70.18466
6039.167, 68.72250
6041.096, 69.58425
6043.024, 70.31281
6044.953, 69.52896
6046.881, 67.55044
6048.810, 67.52365
6050.738, 68.92470
6052.667, 70.04341
6054.595, 69.14361
6056.523, 65.85073
6058.452, 67.49840
6060.380, 67.72715
6062.309, 66.76812
6064.237, 66.67910
6066.166, 68.74886
6068.094, 67.35804
6070.022, 67.97462
6071.951, 69.48510
6073.879, 69.62083
6075.808, 67.50241
6077.736, 69.08544
6079.665, 66.56050
6081.593, 66.58112
6083.522, 67.53833
6085.450, 66.22057
6087.379, 66.70074
6089.307, 66.15754
6091.236, 66.08162
6093.164, 66.15165
6095.093, 66.12404
6097.021, 68.13809
6098.950, 66.93081
6100.878, 66.54027
6102.807, 67.21166
6104.735, 68.10587
6106.664, 68.80866
6108.592, 70.29341
6110.521, 68.67798
6112.449, 66.35487
6114.377, 65.64272
6116.306, 67.52055
6118.234, 67.69663
6120.163, 67.25507
6122.091, 67.18293
6124.020, 67.34863
6125.948, 67.15997
6127.876, 67.66444
6129.805, 67.86848
6131.733, 67.54746
6133.662, 66.79093
6135.590, 66.16758
6137.519, 68.37929
6139.447, 64.89683
6141.376, 64.30962
6143.304, 65.19484
6145.233, 65.21226
6147.161, 65.46072
6149.090, 66.83797
6151.018, 67.81046
6152.947, 67.17580
6154.875, 66.67068
6156.804, 69.00784
6158.732, 66.87386
6160.661, 65.62405
6162.589, 66.93759
6164.518, 68.00938
6166.446, 66.82424
6168.375, 66.72529
6170.303, 65.41826
6172.231, 65.65065
6174.160, 66.23073
6176.088, 66.46294
6178.017, 67.26298
6179.945, 66.83023
6181.874, 65.53051
6183.802, 64.90248
6185.730, 64.65690
6187.659, 64.39211
6189.587, 67.33659
6191.516, 64.68987
6193.444, 63.52301
6195.373, 65.33115
6197.301, 67.06438
6199.230, 64.08297
6201.158, 64.62222
6203.087, 65.73949
6205.015, 65.45152
6206.944, 65.08424
6208.872, 65.77739
6210.801, 64.87249
6212.729, 65.50418
6214.658, 66.25143
6216.586, 65.19877
6218.515, 63.54407
6220.443, 63.81053
6222.372, 63.36776
6224.300, 65.27833
6226.229, 64.31303
6228.157, 63.23011
6230.085, 63.85019
6232.014, 63.01059
6233.942, 64.88872
6235.871, 65.78555
6237.799, 65.25623
6239.728, 65.10162
6241.656, 66.13956
6243.584, 65.79179
6245.513, 65.52396
6247.441, 64.58556
6249.370, 63.57526
6251.298, 63.24872
6253.227, 63.60372
6255.155, 62.86088
6257.084, 63.39671
6259.012, 63.36442
6260.941, 63.17473
6262.869, 63.11965
6264.798, 63.03984
6266.726, 65.15395
6268.655, 64.76968
6270.583, 63.51219
6272.512, 63.36669
6274.440, 63.42212
6276.369, 61.07182
6278.297, 64.92814
6280.226, 64.47874
6282.154, 61.46570
6284.083, 61.04224
6286.011, 63.37111
6287.939, 62.48888
6289.868, 62.85094
6291.796, 64.43642
6293.725, 64.77013
6295.653, 63.30859
6297.582, 61.61036
6299.510, 62.73633
6301.438, 61.03256
6303.367, 61.77808
6305.295, 62.37063
6307.224, 62.07247
6309.152, 61.68670
6311.081, 62.08833
6313.009, 62.44294
6314.938, 61.72051
6316.866, 61.33626
6318.795, 60.73936
6320.723, 60.37972
6322.652, 61.95910
6324.580, 60.53289
6326.509, 61.66090
6328.437, 61.76886
6330.366, 60.74187
6332.294, 60.61752
6334.223, 62.40502
6336.151, 61.54640
6338.080, 60.34520
6340.008, 60.98344
6341.937, 60.78750
6343.865, 60.55104
6345.793, 62.52616
6347.722, 61.54818
6349.650, 61.21600
6351.579, 62.10756
6353.507, 61.51350
6355.436, 60.37957
6357.364, 60.84443
6359.292, 62.49244
6361.221, 61.34507
6363.149, 61.78167
6365.078, 61.40321
6367.006, 61.24038
6368.935, 61.79219
6370.863, 60.83254
6372.792, 61.03105
6374.720, 59.96865
6376.649, 59.34871
6378.577, 60.18699
6380.506, 61.74998
6382.434, 62.08040
6384.363, 58.59984
6386.291, 58.94691
6388.220, 60.68939
6390.148, 62.23572
6392.077, 62.17073
6394.005, 60.32334
6395.934, 58.75252
6397.862, 61.68609
6399.791, 61.15181
6401.719, 60.58248
6403.647, 60.56027
6405.576, 60.42453
6407.504, 60.23021
6409.433, 61.57199
6411.361, 60.19537
6413.290, 59.24473
6415.218, 59.68167
6417.146, 59.19697
6419.075, 58.12526
6421.003, 59.77770
6422.932, 60.29462
6424.860, 60.32178
6426.789, 59.02302
6428.717, 58.85543
6430.646, 60.01116
6432.574, 60.80645
6434.503, 60.12661
6436.431, 60.27183
6438.360, 59.72304
6440.288, 58.27874
6442.217, 59.73797
6444.145, 60.98980
6446.074, 58.62996
6448.002, 58.79331
6449.931, 59.87075
6451.859, 58.13837
6453.788, 58.18732
6455.716, 58.36713
6457.645, 57.41519
6459.573, 56.66287
6461.501, 58.60549
6463.430, 57.46880
6465.358, 57.76778
6467.287, 59.28086
6469.215, 59.00534
6471.144, 57.21333
6473.072, 56.68191
6475.000, 58.38840
6476.929, 58.20223
6478.857, 59.00468
6480.786, 58.57867
6482.714, 58.17065
6484.643, 57.58956
6486.571, 56.56857
6488.500, 58.48459
6490.428, 59.39437
6492.357, 56.59399
6494.285, 57.54718
6496.214, 57.82369
6498.142, 58.01038
6500.071, 59.42025
6501.999, 56.63746
6503.928, 56.28197
6505.856, 55.54913
6507.785, 55.22348
6509.713, 58.43758
6511.642, 59.05648
6513.570, 55.83408
6515.499, 56.41846
6517.427, 58.29597
6519.355, 59.05949
6521.284, 58.24738
6523.212, 57.08466
6525.141, 55.77928
6527.069, 54.71681
6528.998, 54.58434
6530.926, 55.51432
6532.854, 57.77247
6534.783, 54.89525
6536.711, 55.06679
6538.640, 56.03533
6540.568, 56.21894
6542.497, 56.39708
6544.425, 56.48277
6546.354, 54.22869
6548.282, 55.24532
6550.211, 55.79232
6552.139, 55.80518
6554.068, 55.86691
6555.996, 55.69638
6557.925, 55.42695
6559.853, 56.81967
6561.782, 55.03245
6563.710, 55.11823
6565.639, 54.45178
6567.567, 53.96669
6569.496, 54.51616
6571.424, 55.53983
6573.353, 56.03833
6575.281, 55.64937
6577.209, 52.34494
6579.138, 54.64617
6581.066, 55.01158
6582.995, 53.85965
6584.923, 53.69062
6586.852, 54.64330
6588.780, 55.21427
6590.708, 54.26086
6592.637, 53.02712
6594.565, 53.09735
6596.494, 52.98239
6598.422, 54.20239
6600.351, 53.86488
6602.279, 52.54516
6604.208, 53.41231
6606.136, 53.64225
6608.065, 53.39581
6609.993, 53.47181
6611.922, 53.83281
6613.850, 52.60227
6615.779, 53.15377
6617.707, 54.01440
6619.636, 52.12403
6621.564, 51.15142
6623.493, 51.85474
6625.421, 53.37128
6627.350, 53.63360
6629.278, 54.15838
##END=



