177.4530, 0.0000000E+00
177.9350, 6.336121
178.4170, 0.2203370
178.9000, 4.229919
179.3820, 19.56458
179.8640, 33.31860
180.3460, 37.26898
180.8280, 32.90002
181.3100, 27.39996
181.7920, 20.73419
182.2740, 14.98724
182.7570, 12.00085
183.2390, 11.66254
183.7210, 12.29358
184.2030, 11.66364
184.6850, 10.54028
185.1670, 14.59155
185.6490, 30.44586
186.1310, 44.62177
186.6130, 44.49481
187.0960, 31.51251
187.5780, 18.80414
188.0600, 15.82306
188.5420, 21.04578
189.0240, 24.15991
189.5060, 21.30237
189.9880, 19.08142
190.4700, 10.34619
190.9520, 21.21338
191.4350, 27.25806
191.9170, 28.78992
192.3990, 12.19824
192.8810, 18.87323
193.3630, 16.45007
193.8450, 13.47919
194.3270, 23.34186
194.8090, 9.915894
195.2920, 20.68579
195.7740, 21.34753
196.2560, 27.63550
196.7380, 30.63745
197.2200, 29.90344
197.7020, 37.02008
198.1840, 38.98553
198.6660, 33.05084
199.1480, 37.41809
199.6310, 22.61212
200.1130, 26.42084
200.5950, 19.05066
201.0770, 25.11517
201.5590, 33.88153
202.0410, 38.19647
202.5230, 39.33533
203.0050, 41.70953
203.4880, 51.49823
203.9700, 65.16394
204.4520, 65.76459
204.9340, 43.96417
205.4160, 23.74408
205.8980, 18.89062
206.3800, 24.73627
206.8620, 31.95288
207.3440, 37.51886
207.8270, 40.66864
208.3090, 36.80756
208.7910, 20.40472
209.2730, 8.213379
209.7550, 13.07007
210.2370, 26.46930
210.7190, 34.29401
211.2010, 27.11298
211.6840, 11.00299
212.1660, 1.343445
212.6480, 0.2415160
213.1300, 1.319519
213.6120, 4.124390
214.0940, 6.619263
214.5760, 5.219299
215.0580, 4.974243
215.5400, 17.65393
216.0230, 18.88660
216.5050, 4.492126
216.9870, 9.146240
217.4690, 16.52588
217.9510, 19.51428
218.4330, 18.74323
218.9150, 12.50952
219.3970, 5.684998
219.8800, 7.644836
220.3620, 21.74542
220.8440, 32.11371
221.3260, 28.08325
221.8080, 18.97827
222.2900, 12.69214
222.7720, 11.01996
223.2540, 12.42761
223.7360, 16.09729
224.2190, 22.86237
224.7010, 26.44653
225.1830, 20.46918
225.6650, 12.55127
226.1470, 9.830078
226.6290, 14.37451
227.1110, 20.16187
227.5930, 20.23853
228.0760, 14.18921
228.5580, 10.28241
229.0400, 12.28625
229.5220, 16.44647
230.0040, 19.67108
230.4860, 21.63678
230.9680, 23.24902
231.4500, 25.13544
231.9320, 26.89062
232.4150, 28.88867
232.8970, 31.72504
233.3790, 34.50525
233.8610, 37.20544
234.3430, 39.65741
234.8250, 40.63446
235.3070, 45.07721
235.7890, 51.28241
236.2710, 48.94440
236.7540, 30.56244
237.2360, 12.23267
237.7180, 7.814087
238.2000, 15.63055
238.6820, 26.11743
239.1640, 39.18561
239.6460, 51.37610
240.1280, 51.41077
240.6110, 33.00909
241.0930, 14.24927
241.5750, 10.54498
242.0570, 18.22754
242.5390, 27.99786
243.0210, 40.70996
243.5030, 52.16400
243.9850, 53.84430
244.4670, 43.62427
244.9500, 32.15381
245.4320, 26.91650
245.9140, 26.32697
246.3960, 27.12823
246.8780, 29.63654
247.3600, 32.71552
247.8420, 35.56635
248.3240, 38.22015
248.8070, 39.63239
249.2890, 39.61401
249.7710, 37.59613
250.2530, 32.39508
250.7350, 19.67688
251.2170, 8.373474
251.6990, 6.850037
252.1810, 13.78027
252.6630, 19.74768
253.1460, 20.31122
253.6280, 17.06970
254.1100, 13.82648
254.5920, 8.703918
255.0740, 6.873657
255.5560, 14.15924
256.0380, 27.11273
256.5200, 35.92432
257.0030, 36.64282
257.4850, 32.38208
257.9670, 28.23633
258.4490, 23.45270
258.9310, 20.85999
259.4130, 23.19147
259.8950, 27.71985
260.3770, 29.95300
260.8590, 28.56036
261.3410, 25.90894
261.8240, 25.55634
262.3060, 28.41486
262.7880, 29.14282
263.2700, 24.48511
263.7520, 18.93054
264.2340, 18.09082
264.7160, 22.53815
265.1980, 26.63898
265.6810, 23.81561
266.1630, 12.20081
266.6450, 8.579529
267.1270, 16.56104
267.6090, 28.24048
268.0910, 43.79950
268.5730, 60.98401
269.0550, 71.86926
269.5380, 69.21252
270.0200, 53.31335
270.5020, 42.60474
270.9840, 39.15717
271.4660, 37.70026
271.9480, 36.59796
272.4300, 36.05768
272.9120, 36.66888
273.3940, 38.74951
273.8770, 42.42834
274.3590, 46.16205
274.8410, 51.34204
275.3230, 53.38953
275.8050, 50.54297
276.2870, 44.75348
276.7690, 36.73346
277.2510, 26.91736
277.7330, 18.51813
278.2160, 18.54626
278.6980, 36.14716
279.1800, 47.10474
279.6620, 44.92487
280.1440, 40.78540
280.6260, 45.31146
281.1080, 59.31219
281.5900, 73.46796
282.0730, 75.66931
282.5550, 62.28912
283.0370, 49.73663
283.5190, 37.18610
284.0010, 26.18799
284.4830, 15.28210
284.9650, 6.125793
285.4470, 3.934082
285.9300, 16.00043
286.4120, 41.36237
286.8940, 53.77179
287.3760, 43.25287
287.8580, 30.59790
288.3400, 22.02551
288.8220, 16.03961
289.3040, 9.150146
289.7860, 1.405304
290.2680, 12.85495
290.7510, 17.26953
291.2330, 12.80310
291.7150, 5.105988
292.1970, 7.563019
292.6790, 20.73734
293.1610, 29.68741
293.6430, 32.69379
294.1250, 32.77466
294.6080, 34.32272
295.0900, 37.76413
295.5720, 37.56830
296.0540, 28.77686
296.5360, 18.52713
297.0180, 12.26569
297.5000, 10.37143
297.9820, 11.32773
298.4650, 16.59668
298.9470, 24.52670
299.4290, 27.08978
299.9110, 21.30823
300.3930, 12.88116
300.8750, 5.354828
301.3570, 1.017212
301.8390, 3.869385
302.3210, 2.968689
302.8040, 2.121155
303.2860, 15.01743
303.7680, 37.09366
304.2500, 55.24338
304.7320, 58.25360
305.2140, 49.05154
305.6960, 41.82889
306.1780, 37.51846
306.6600, 35.39987
307.1430, 35.42004
307.6250, 37.37482
308.1070, 41.00327
308.5890, 47.06293
309.0710, 53.67645
309.5530, 54.62112
310.0350, 46.73828
310.5170, 39.78732
311.0000, 37.00024
311.4820, 36.46402
311.9640, 34.99405
312.4460, 31.53595
312.9280, 28.55945
313.4100, 30.10785
313.8920, 39.02530
314.3740, 45.95361
314.8570, 49.70181
315.3390, 52.32687
315.8210, 56.04425
316.3030, 60.53256
316.7850, 62.94177
317.2670, 60.10370
317.7490, 51.43130
318.2310, 46.62006
318.7130, 52.64490
319.1950, 54.93283
319.6780, 44.11563
320.1600, 26.81796
320.6420, 15.76550
321.1240, 18.65625
321.6060, 31.17157
322.0880, 38.76721
322.5700, 42.19907
323.0520, 38.49048
323.5350, 17.87546
324.0170, 4.029602
324.4990, 12.03583
324.9810, 2.086578
325.4630, 15.86517
325.9450, 29.12686
326.4270, 37.13858
326.9090, 43.53433
327.3920, 50.53406
327.8740, 54.10541
328.3560, 46.73465
328.8380, 31.68237
329.3200, 24.26880
329.8020, 45.83063
330.2840, 85.78918
330.7660, 96.80273
331.2480, 64.67416
331.7310, 32.37476
332.2130, 28.82141
332.6950, 42.53253
333.1770, 54.54565
333.6590, 60.62921
334.1410, 61.33862
334.6230, 54.27295
335.1050, 39.84814
335.5870, 29.00641
336.0700, 26.54053
336.5520, 30.84668
337.0340, 39.30066
337.5160, 55.96045
337.9980, 65.78174
338.4800, 56.24280
338.9620, 36.47546
339.4440, 23.97809
339.9270, 23.49048
340.4090, 27.97839
340.8910, 28.38501
341.3730, 22.77710
341.8550, 23.74078
342.3370, 41.84009
342.8190, 58.90540
343.3010, 58.05792
343.7840, 42.11676
344.2660, 29.05402
344.7480, 33.19135
345.2300, 52.71497
345.7120, 61.64246
346.1940, 52.51501
346.6760, 42.32135
347.1580, 31.70648
347.6400, 22.76868
348.1220, 18.75885
348.6050, 21.55597
349.0870, 28.10602
349.5690, 31.70996
350.0510, 29.34607
350.5330, 29.17743
351.0150, 31.25378
351.4970, 35.48926
351.9790, 45.62378
352.4620, 59.54681
352.9440, 67.67627
353.4260, 57.07709
353.9080, 29.10925
354.3900, 15.31964
354.8720, 26.91925
355.3540, 36.94794
355.8360, 29.04071
356.3190, 12.74261
356.8010, 4.807617
357.2830, 15.38324
357.7650, 32.55524
358.2470, 36.78632
358.7290, 26.37628
359.2110, 14.98920
359.6930, 29.07587
360.1750, 36.99011
360.6580, 39.21259
361.1400, 17.98907
361.6220, 27.21881
362.1040, 24.26562
362.5860, 20.80951
363.0680, 34.31482
363.5500, 16.56830
364.0320, 29.81464
364.5140, 30.98999
364.9970, 29.25342
365.4790, 21.44324
365.9610, 22.04456
366.4430, 25.46912
366.9250, 28.84113
367.4070, 31.92859
367.8890, 34.84436
368.3710, 37.68286
368.8530, 40.37585
369.3360, 42.76428
369.8180, 45.03790
370.3000, 46.75409
370.7820, 47.69031
371.2640, 48.13879
371.7460, 47.43762
372.2280, 45.83337
372.7110, 45.91504
373.1930, 52.69110
373.6750, 70.01117
374.1570, 76.98926
374.6390, 61.76746
375.1210, 47.18677
375.6030, 43.22809
376.0850, 46.74243
376.5670, 49.21857
377.0490, 45.71033
377.5320, 37.59985
378.0140, 28.64374
378.4960, 17.97247
378.9780, 8.397827
379.4600, 2.839966
379.9420, 10.38861
380.4240, 6.400330
380.9060, 11.37482
381.3890, 29.39478
381.8710, 37.37311
382.3530, 36.78412
382.8350, 34.09558
383.3170, 28.69330
383.7990, 23.82483
384.2810, 25.02936
384.7630, 31.12402
385.2460, 32.31323
385.7280, 22.44366
386.2100, 10.84143
386.6920, 4.237305
387.1740, 2.110229
387.6560, 2.151672
388.1380, 3.678711
388.6200, 6.919128
389.1020, 11.08508
389.5850, 18.36908
390.0670, 22.92114
390.5490, 22.45905
391.0310, 20.17377
391.5130, 18.70209
391.9950, 18.82886
392.4770, 20.77014
392.9590, 25.54712
393.4410, 34.50781
393.9240, 37.90845
394.4060, 28.78345
394.8880, 20.90924
395.3700, 19.27356
395.8520, 22.12628
396.3340, 26.35333
396.8160, 30.67645
397.2980, 33.63068
397.7800, 30.03571
398.2630, 16.92554
398.7450, 8.888000
399.2270, 13.81769
399.7090, 23.02106
400.1910, 29.66309
400.6730, 33.08710
401.1550, 36.94543
401.6380, 25.85498
402.1200, 18.95844
402.6020, 4.950012
403.0840, 23.10632
403.5660, 33.00116
404.0480, 35.35052
404.5300, 8.023621
405.0120, 19.01208
405.4940, 14.63049
405.9770, 9.608459
406.4590, 25.98438
406.9410, 2.975830
407.4230, 19.02191
407.9050, 19.47510
408.3870, 16.31293
408.8690, 24.66235
409.3510, 23.09644
409.8330, 25.10358
410.3160, 36.56244
410.7980, 44.97333
411.2800, 38.63574
411.7620, 21.35968
412.2440, 8.932922
412.7260, 14.89423
413.2080, 35.06421
413.6900, 39.92108
414.1720, 14.60645
414.6550, 1.133911
415.1370, 7.215576
415.6190, 25.57050
416.1010, 41.76245
416.5830, 52.72644
417.0650, 57.91351
417.5470, 54.55573
418.0290, 43.69623
418.5120, 34.78510
418.9940, 29.03223
419.4760, 25.46411
419.9580, 25.49762
420.4400, 28.07111
420.9220, 26.91064
421.4040, 12.89435
421.8860, 9.5581003E-02
422.3680, 0.5813600
422.8510, 12.38849
423.3330, 25.73523
423.8150, 37.48376
424.2970, 45.40106
424.7790, 44.09430
425.2610, 24.25989
425.7430, 11.49707
426.2250, 11.54480
426.7080, 16.33728
427.1900, 19.87927
427.6720, 21.50659
428.1540, 22.10559
428.6360, 22.05872
429.1180, 21.77893
429.6000, 21.16351
430.0820, 19.68390
430.5650, 19.41443
431.0470, 22.17920
431.5290, 25.43677
432.0110, 26.65424
432.4930, 25.12445
432.9750, 21.40637
433.4570, 14.63110
433.9390, 5.306335
434.4210, 0.5371700
434.9040, 1.564636
435.3860, 0.1161500
435.8680, 5.375244
436.3500, 12.33276
436.8320, 15.11230
437.3140, 6.801514
437.7960, 2.393250
438.2780, 1.278503
438.7600, 7.860291
439.2430, 14.47589
439.7250, 14.27734
440.2070, 10.12091
440.6890, 7.070801
441.1710, 5.262939
441.6530, 4.377930
442.1350, 6.681641
442.6170, 8.101257
443.0990, 3.980103
443.5820, 4.130371
444.0640, 9.995544
444.5460, 8.753540
445.0280, 2.141846
445.5100, 0.8090210
445.9920, 2.990417
446.4740, 4.901611
446.9570, 1.812073
447.4390, 2.622437
447.9210, 4.278564
448.4030, 2.778748
448.8850, 3.232727
449.3670, 12.19989
449.8490, 27.19855
450.3310, 38.36273
450.8130, 45.60742
451.2960, 47.10962
451.7780, 38.01740
452.2600, 22.43066
452.7420, 10.69147
453.2240, 1.983398
453.7060, 0.3288570
454.1880, 12.57703
454.6700, 32.00391
455.1520, 39.38751
455.6350, 29.31213
456.1170, 13.09100
456.5990, 4.723328
457.0810, 6.158508
457.5630, 6.806458
458.0450, 7.626587
458.5270, 6.756775
459.0090, 0.9481810
459.4910, 6.627747
459.9740, 10.39062
460.4560, 7.678650
460.9380, 0.7856450
461.4200, 6.575562
461.9020, 15.55109
462.3840, 19.43939
462.8660, 11.22272
463.3480, 3.516907
463.8310, 5.825623
464.3130, 16.37958
464.7950, 25.75671
465.2770, 32.45251
465.7590, 34.26782
466.2410, 24.36908
466.7230, 3.818420
467.2050, 10.08063
467.6870, 8.027344
468.1700, 2.810242
468.6520, 6.989441
469.1340, 1.865356
469.6160, 1.486084
470.0980, 0.2521970
470.5800, 3.112854
471.0620, 2.399597
471.5440, 1.042908
472.0260, 1.759583
472.5090, 4.384155
472.9910, 16.29034
473.4730, 24.03021
473.9550, 25.54504
474.4370, 25.95776
474.9190, 26.11859
475.4010, 25.65143
475.8830, 25.04999
476.3660, 24.32196
476.8480, 20.48785
477.3300, 7.161865
477.8120, 10.76898
478.2940, 14.00269
478.7760, 1.310364
479.2580, 16.65973
479.7400, 21.97827
480.2230, 19.58099
480.7050, 15.31647
481.1870, 6.939758
481.6690, 0.4423830
482.1510, 9.600708
482.6330, 3.466675
483.1150, 10.92444
483.5970, 13.05688
484.0790, 6.019409
484.5610, 2.305542
485.0440, 0.3449710
485.5260, 3.444031
486.0080, 8.736267
486.4900, 7.241760
486.9720, 4.696228
487.4540, 3.448914
487.9360, 2.595764
488.4180, 3.552673
488.9010, 14.30872
489.3830, 24.31451
489.8650, 32.94116
490.3470, 31.22150
490.8290, 12.65076
491.3110, 3.326111
491.7930, 0.5964360
492.2750, 12.91156
492.7580, 22.26965
493.2400, 22.07196
493.7220, 23.31116
494.2040, 37.92725
494.6860, 56.73370
495.1680, 60.30890
495.6500, 43.97302
496.1320, 23.38013
496.6140, 15.18677
497.0970, 20.11737
497.5790, 24.70734
498.0610, 27.96173
498.5430, 32.04614
499.0250, 39.91003
499.5070, 47.95740
499.9890, 50.26190
500.4710, 45.12018
500.9530, 39.37573
501.4360, 43.14331
501.9180, 56.17303
502.4000, 61.89764
502.8820, 56.34882
503.3640, 49.55438
503.8460, 47.67255
504.3280, 48.97644
504.8100, 50.52765
505.2930, 52.83221
505.7750, 53.52448
506.2570, 49.56757
506.7390, 43.36572
507.2210, 38.37292
507.7030, 35.45630
508.1850, 38.04175
508.6670, 51.78833
509.1500, 78.65601
509.6320, 91.71234
510.1140, 77.08258
510.5960, 65.62140
511.0780, 72.48096
511.5600, 83.66809
512.0420, 77.97620
512.5240, 49.67389
513.0060, 20.36829
513.4890, 16.00269
513.9710, 35.15430
514.4530, 58.00818
514.9350, 87.91486
515.4170, 111.8390
515.8990, 119.7847
516.3810, 116.0397
516.8630, 106.9824
517.3460, 86.19617
517.8280, 71.89423
518.3100, 82.11615
518.7920, 102.7305
519.2740, 109.1915
519.7560, 97.19360
520.2380, 79.36652
520.7200, 66.55432
521.2020, 58.81091
521.6850, 59.20654
522.1670, 83.05493
522.6490, 96.59290
523.1310, 86.32056
523.6130, 68.01410
524.0950, 57.88049
524.5770, 59.14685
525.0590, 62.27563
525.5410, 60.14819
526.0240, 54.15131
526.5060, 46.98547
526.9880, 37.51569
527.4700, 32.70178
527.9520, 40.32928
528.4340, 53.84399
528.9160, 57.37469
529.3980, 46.09625
529.8800, 36.04987
530.3630, 30.90869
530.8450, 30.27191
531.3270, 39.05432
531.8090, 54.12799
532.2910, 58.76978
532.7730, 37.84576
533.2550, 0.2799070
533.7370, 13.24347
534.2190, 16.14545
534.7020, 38.33466
535.1840, 44.41718
535.6660, 41.81769
536.1480, 31.81421
536.6300, 17.95679
537.1120, 10.23773
537.5940, 21.25159
538.0760, 39.75909
538.5590, 45.18213
539.0410, 38.29565
539.5230, 35.19537
540.0050, 43.40839
540.4870, 56.76740
540.9690, 62.07800
541.4510, 55.18414
541.9330, 53.19678
542.4160, 65.02625
542.8980, 75.03564
543.3800, 70.92078
543.8620, 58.01709
544.3440, 48.28284
544.8260, 48.48651
545.3080, 53.85986
545.7900, 56.62659
546.2730, 56.79138
546.7550, 55.37994
547.2370, 53.03229
547.7190, 48.32544
548.2010, 36.39026
548.6830, 21.41595
549.1650, 15.14368
549.6470, 26.88251
550.1290, 40.10248
550.6120, 40.54303
551.0940, 34.52472
551.5760, 36.81464
552.0580, 50.86945
552.5400, 66.16510
553.0220, 70.68469
553.5040, 63.83716
553.9860, 65.49878
554.4680, 53.86536
554.9510, 63.89795
555.4330, 68.67627
555.9150, 68.48157
556.3970, 48.41180
556.8790, 54.01715
557.3610, 49.33862
557.8430, 49.75708
558.3250, 51.79846
558.8070, 51.33905
559.2900, 44.92664
559.7720, 41.84778
560.2540, 48.26703
560.7360, 59.92395
561.2180, 67.25537
561.7000, 71.14349
562.1820, 69.43079
562.6640, 53.00238
563.1460, 37.91925
563.6290, 39.50726
564.1110, 53.74139
564.5930, 66.37677
565.0750, 69.28821
565.5570, 65.64270
566.0390, 62.08911
566.5210, 58.80444
567.0030, 54.71997
567.4860, 49.08905
567.9680, 44.21875
568.4500, 41.50275
568.9320, 40.35754
569.4140, 39.15961
569.8960, 32.18915
570.3780, 32.90649
570.8600, 58.79895
571.3430, 96.29211
571.8250, 118.1134
572.3070, 118.0015
572.7890, 109.1555
573.2710, 104.2035
573.7530, 103.1945
574.2350, 102.1370
574.7170, 96.19678
575.2000, 96.92273
575.6820, 116.7682
576.1640, 137.3709
576.6460, 137.1539
577.1280, 114.4031
577.6100, 93.56525
578.0920, 94.13220
578.5740, 107.4771
579.0560, 119.1418
579.5390, 128.5715
580.0210, 129.8449
580.5030, 118.0234
580.9850, 100.5457
581.4670, 91.27692
581.9490, 92.81897
582.4310, 96.81702
582.9130, 107.9325
583.3950, 116.9492
583.8780, 117.4597
584.3600, 112.5391
584.8420, 108.3423
585.3240, 107.5062
585.8060, 108.1190
586.2880, 106.8626
586.7700, 103.9992
587.2520, 105.0401
587.7340, 111.7654
588.2170, 119.1756
588.6990, 126.0197
589.1810, 130.6947
589.6630, 128.6236
590.1450, 114.0046
590.6270, 102.2723
591.1090, 100.8014
591.5910, 102.4440
592.0730, 100.7465
592.5560, 95.05908
593.0380, 88.16559
593.5200, 81.35645
594.0020, 76.31342
594.4840, 80.31244
594.9660, 97.60529
595.4480, 107.9632
595.9300, 103.4570
596.4130, 95.27686
596.8950, 90.38263
597.3770, 88.91650
597.8590, 91.17548
598.3410, 102.2445
598.8230, 112.1146
599.3050, 113.4977
599.7870, 108.9170
600.2690, 102.6564
600.7520, 95.92188
601.2340, 88.00800
601.7160, 76.55811
602.1980, 62.19757
602.6800, 63.74420
603.1620, 98.54877
603.6440, 120.3347
604.1270, 106.3827
604.6090, 84.56177
605.0910, 82.52887
605.5730, 100.9530
606.0550, 112.9011
606.5370, 99.22943
607.0190, 74.82013
607.5010, 53.76886
607.9830, 37.47363
608.4660, 32.21741
608.9480, 41.25415
609.4300, 55.05292
609.9120, 59.06665
610.3940, 50.36334
610.8760, 47.36511
611.3580, 56.19678
611.8400, 63.83447
612.3220, 69.51001
612.8050, 70.77350
613.2870, 61.38397
613.7690, 40.09552
614.2510, 23.64685
614.7330, 30.18616
615.2150, 48.90033
615.6970, 59.32147
616.1790, 60.45557
616.6610, 53.91351
617.1440, 38.46350
617.6260, 20.25726
618.1080, 12.14490
618.5900, 19.23840
619.0720, 23.72870
619.5540, 24.11786
620.0360, 23.70386
620.5180, 23.75269
621.0000, 24.07733
621.4830, 24.62775
621.9650, 25.51093
622.4470, 24.80591
622.9290, 19.45166
623.4110, 10.90918
623.8930, 4.652466
624.3750, 1.385559
624.8570, 4.228455
625.3400, 16.91394
625.8220, 32.71552
626.3040, 40.23981
626.7860, 32.41534
627.2680, 28.81445
627.7500, 36.98730
628.2320, 42.62183
628.7140, 34.72375
629.1960, 18.03925
629.6790, 2.745239
630.1610, 7.066101
630.6430, 11.29529
631.1250, 7.102539
631.6070, 3.474243
632.0890, 10.23773
632.5710, 11.81396
633.0540, 10.75500
633.5360, 9.233643
634.0180, 6.199402
634.5000, 2.649963
634.9820, 22.48114
635.4640, 39.57446
635.9460, 56.02783
636.4280, 66.73328
636.9100, 64.27979
637.3930, 53.31635
637.8750, 45.21295
638.3570, 45.57172
638.8390, 51.27844
639.3210, 58.72534
639.8030, 67.91040
640.2850, 79.14337
640.7670, 93.15753
641.2500, 106.0375
641.7320, 115.9352
642.2140, 122.3441
642.6960, 122.6119
643.1780, 109.5499
643.6600, 101.3091
644.1420, 99.55927
644.6240, 102.8895
645.1060, 113.1159
645.5890, 127.5363
646.0710, 139.8419
646.5530, 146.6166
647.0350, 150.7053
647.5170, 157.8671
647.9990, 166.5871
648.4810, 165.9501
648.9630, 152.9003
649.4450, 138.6091
649.9280, 129.6390
650.4100, 126.4069
650.8920, 131.0741
651.3740, 153.7983
651.8560, 169.8347
652.3380, 172.8022
652.8200, 172.9160
653.3020, 179.4872
653.7840, 189.1852
654.2670, 190.6660
654.7490, 176.2510
655.2310, 158.8992
655.7130, 157.4102
656.1950, 167.7334
656.6770, 171.3126
657.1590, 164.8129
657.6410, 157.9722
658.1230, 157.4775
658.6060, 162.2689
659.0880, 168.0723
659.5700, 178.2927
660.0520, 184.5352
660.5340, 182.1206
661.0160, 180.0612
661.4980, 186.7437
661.9810, 197.9111
662.4630, 202.5286
662.9450, 194.9052
663.4270, 183.6657
663.9090, 176.5722
664.3910, 173.0216
664.8730, 172.2491
665.3550, 174.1145
665.8370, 174.8499
666.3200, 170.7452
666.8020, 165.6025
667.2840, 171.8678
667.7660, 200.3329
668.2480, 220.0051
668.7300, 225.3571
669.2120, 227.8240
669.6940, 234.2980
670.1770, 241.4967
670.6590, 241.0425
671.1410, 228.0651
671.6230, 217.3966
672.1050, 222.5551
672.5870, 236.5445
673.0690, 247.4578
673.5510, 254.5149
674.0330, 259.1589
674.5160, 260.4698
674.9980, 263.0565
675.4800, 279.8270
675.9620, 293.1613
676.4440, 303.2366
676.9260, 300.3028
677.4080, 314.1768
677.8900, 321.3179
678.3720, 328.1859
678.8550, 344.4357
679.3370, 343.4083
679.8190, 359.5126
680.3010, 367.5297
680.7830, 369.0566
681.2650, 374.1224
681.7470, 379.9503
682.2290, 383.6224
682.7110, 383.6477
683.1940, 381.1252
683.6760, 376.0767
684.1580, 368.1299
684.6400, 373.7935
685.1220, 400.1884
685.6040, 423.0645
686.0860, 430.9035
686.5680, 431.6831
687.0500, 436.2061
687.5330, 445.0755
688.0150, 452.2196
688.4970, 453.6155
688.9790, 455.2050
689.4610, 460.8779
689.9430, 468.8817
690.4250, 476.4344
690.9070, 482.6584
691.3900, 488.9530
691.8720, 497.7294
692.3540, 508.0421
692.8360, 512.3815
693.3180, 509.5978
693.8000, 514.1385
694.2820, 514.2161
694.7640, 521.1932
695.2470, 526.5015
695.7290, 530.2280
696.2110, 527.6302
696.6930, 533.0967
697.1750, 537.2021
697.6570, 534.3809
698.1390, 538.5079
698.6210, 541.2983
699.1040, 542.4814
699.5860, 536.9662
700.0680, 539.6817
700.5500, 539.8639
701.0320, 538.6564
701.5140, 530.9763
701.9960, 522.5649
702.4780, 514.6891
702.9600, 506.8287
703.4430, 498.7262
703.9250, 490.1902
704.4070, 479.4852
704.8890, 464.0363
705.3710, 451.1967
705.8530, 444.9890
706.3350, 438.5055
706.8170, 423.9023
707.2990, 406.1311
707.7820, 399.3284
708.2640, 413.2509
708.7460, 425.8034
709.2280, 422.5459
709.7100, 410.3688
710.1920, 396.6887
710.6740, 383.6368
711.1560, 372.6250
711.6380, 364.2469
712.1210, 357.1974
712.6030, 350.1501
713.0850, 343.4728
713.5670, 329.5748
714.0490, 302.1851
714.5310, 282.2546
715.0130, 286.8355
715.4950, 302.9435
715.9770, 303.7188
716.4600, 284.2593
716.9420, 268.8370
717.4240, 264.7668
717.9060, 261.4938
718.3880, 253.7151
718.8700, 242.4246
719.3520, 228.7070
719.8340, 213.2225
720.3170, 199.4930
720.7990, 191.0756
721.2810, 186.5580
721.7630, 185.2076
722.2450, 186.1409
722.7270, 177.3262
723.2090, 152.6793
723.6910, 128.9533
724.1740, 127.7081
724.6560, 149.0828
725.1380, 157.9041
725.6200, 143.9763
726.1020, 132.7775
726.5840, 131.1601
727.0660, 131.4263
727.5480, 129.8672
728.0310, 125.3267
728.5130, 114.5108
728.9950, 88.89844
729.4770, 67.15607
729.9590, 66.07886
730.4410, 74.19910
730.9230, 73.89105
731.4050, 64.57556
731.8870, 57.43646
732.3700, 59.85468
732.8520, 67.53540
733.3340, 72.45752
733.8160, 74.66302
734.2980, 71.76208
734.7800, 61.54523
735.2620, 52.36914
735.7440, 50.13074
736.2260, 51.67352
736.7090, 47.86041
737.1910, 38.44751
737.6730, 45.29163
738.1550, 48.19080
738.6370, 47.41162
739.1190, 32.15173
739.6010, 35.74512
740.0830, 31.56665
740.5650, 27.07623
741.0480, 34.37073
741.5300, 21.31976
742.0120, 28.39008
742.4940, 27.59888
742.9760, 30.57983
743.4580, 25.21680
743.9400, 21.92407
744.4220, 26.50977
744.9040, 27.58691
745.3870, 22.61945
745.8690, 18.74792
746.3510, 20.46295
746.8330, 18.91888
747.3150, 6.422729
747.7970, 4.518250
748.2790, 2.180115
748.7610, 10.07349
749.2440, 19.90082
749.7260, 26.96649
750.2080, 30.69415
750.6900, 28.28107
751.1720, 24.62549
751.6540, 24.17255
752.1360, 26.17285
752.6180, 27.31042
753.1010, 26.09576
753.5830, 24.50226
754.0650, 27.16089
754.5470, 30.83563
755.0290, 23.40942
755.5110, 5.175232
755.9930, 7.599915
756.4750, 7.195557
756.9580, 0.6343380
757.4400, 7.895020
757.9220, 15.00464
758.4040, 17.26501
758.8860, 9.628235
759.3680, 5.582275
759.8500, 14.40198
760.3320, 24.70636
760.8140, 24.74744
761.2970, 15.40216
761.7790, 10.32849
762.2610, 18.82941
762.7430, 25.10785
763.2250, 19.16571
763.7070, 8.643188
764.1890, 1.105957
764.6710, 2.218079
765.1530, 1.863770
765.6360, 2.658142
766.1180, 7.730103
766.6000, 8.354370
767.0820, 4.929077
767.5640, 2.509033
768.0460, 13.96344
768.5280, 23.06235
769.0100, 26.83850
769.4920, 24.36209
769.9750, 12.13580
770.4570, 14.91257
770.9390, 30.80801
771.4210, 29.95840
771.9030, 26.00482
772.3850, 21.65213
772.8670, 17.82343
773.3490, 15.53665
773.8310, 14.79620
774.3140, 15.05768
774.7960, 16.79095
775.2780, 18.80936
775.7600, 21.84985
776.2420, 24.03900
776.7240, 21.07761
777.2060, 14.27786
777.6880, 11.69479
778.1710, 19.53918
778.6530, 31.74915
779.1350, 40.28769
779.6170, 45.38583
780.0990, 47.01752
780.5810, 45.24069
781.0630, 43.29434
781.5450, 43.44852
782.0280, 43.65308
782.5100, 38.43408
782.9920, 24.96246
783.4740, 17.96225
783.9560, 19.74030
784.4380, 24.34464
784.9200, 34.02725
785.4020, 42.50116
785.8850, 39.70331
786.3670, 24.69174
786.8490, 16.60135
787.3310, 22.80386
787.8130, 32.14294
788.2950, 43.73920
788.7770, 53.34338
789.2590, 55.95944
789.7410, 51.91959
790.2240, 45.59158
790.7060, 38.88416
791.1880, 32.19467
791.6700, 23.77167
792.1520, 16.10052
792.6340, 16.79504
793.1160, 25.79105
793.5980, 35.50690
794.0800, 42.02466
794.5630, 44.71625
795.0450, 41.70465
795.5270, 32.49188
796.0090, 18.27798
796.4910, 0.1326900
796.9730, 15.75290
797.4550, 23.30551
797.9370, 22.97766
798.4190, 8.834839
798.9020, 9.8270001E-03
799.3840, 7.483826
799.8660, 6.903961
800.3480, 9.632996
800.8300, 0.2272950
801.3120, 8.741089
801.7940, 4.941193
802.2760, 8.744141
802.7580, 20.08481
803.2410, 25.59769
803.7230, 24.66486
804.2050, 10.44177
804.6870, 6.603973
805.1690, 9.861481
805.6510, 2.563934
806.1330, 9.0576001E-02
806.6150, 8.920746
807.0980, 22.86884
807.5800, 37.47955
808.0620, 50.82233
808.5440, 48.71423
809.0260, 30.68356
809.5080, 21.85132
809.9900, 31.43057
810.4720, 47.61719
810.9550, 58.89453
811.4370, 65.61197
811.9190, 71.11639
812.4010, 77.81985
812.8830, 78.37225
813.3650, 65.90170
813.8470, 53.00949
814.3290, 47.17773
814.8120, 46.94254
815.2940, 48.32211
815.7760, 52.00177
816.2580, 53.79840
816.7400, 49.78812
817.2220, 46.37183
817.7040, 47.86459
818.1860, 52.67932
818.6680, 59.79910
819.1510, 68.13794
819.6330, 72.15485
820.1150, 63.81775
820.5970, 52.62170
821.0790, 52.83063
821.5610, 59.92859
822.0430, 62.03436
822.5250, 57.22131
823.0070, 50.89774
823.4900, 46.54892
823.9720, 44.13406
824.4540, 43.74069
824.9360, 45.31775
825.4180, 50.07864
825.9000, 58.99619
826.3820, 64.32742
826.8640, 62.23801
827.3460, 55.77991
827.8290, 49.01950
828.3110, 41.36197
828.7930, 37.94394
829.2750, 44.97546
829.7570, 47.57761
830.2390, 35.78302
830.7210, 24.53989
831.2030, 30.34302
831.6850, 48.57224
832.1680, 56.01620
832.6500, 39.01050
833.1320, 26.20670
833.6140, 31.76410
834.0960, 42.47379
834.5780, 49.24295
835.0600, 51.64261
835.5420, 49.92673
836.0240, 44.33948
836.5070, 40.21472
836.9890, 41.66336
837.4710, 47.57254
837.9530, 61.67029
838.4350, 78.53644
838.9170, 79.34210
839.3990, 60.90826
839.8810, 41.17593
840.3640, 34.67914
840.8460, 38.38287
841.3280, 47.67862
841.8100, 62.60544
842.2920, 64.52277
842.7740, 48.53464
843.2560, 35.91107
843.7380, 40.30014
844.2210, 51.65573
844.7030, 49.62250
845.1850, 29.81927
845.6670, 21.21344
846.1490, 32.92377
846.6310, 41.70764
847.1130, 38.67612
847.5950, 32.23117
848.0780, 28.00479
848.5600, 26.31195
849.0420, 28.30740
849.5240, 33.55426
850.0060, 43.31686
850.4880, 68.36765
850.9700, 88.47662
851.4520, 82.90637
851.9340, 62.46979
852.4170, 50.11792
852.8990, 52.55576
853.3810, 57.77640
853.8630, 56.78513
854.3450, 55.26645
854.8270, 64.21112
855.3090, 76.74899
855.7910, 77.15701
856.2730, 63.38464
856.7560, 52.72223
857.2380, 56.68240
857.7200, 66.56384
858.2020, 62.36902
858.6840, 49.77542
859.1660, 56.00464
859.6480, 82.18915
860.1300, 95.46661
860.6120, 78.73441
861.0950, 50.22287
861.5770, 38.81619
862.0590, 45.25809
862.5410, 42.68256
863.0230, 25.04645
863.5050, 19.36023
863.9870, 37.05362
864.4690, 57.46082
864.9510, 66.26645
865.4340, 64.21545
865.9160, 54.59537
866.3980, 27.04892
866.8800, 9.677460
867.3620, 3.850616
867.8440, 5.508331
868.3260, 21.22403
868.8080, 40.00122
869.2910, 45.34335
869.7730, 35.18643
870.2550, 27.00745
870.7370, 27.12747
871.2190, 27.81845
871.7010, 23.80920
872.1830, 20.05063
872.6650, 23.75311
873.1480, 32.55466
873.6300, 36.47324
874.1120, 30.09494
874.5940, 23.54172
875.0760, 24.46967
875.5580, 29.62830
876.0400, 38.31906
876.5220, 47.15802
877.0050, 47.11346
877.4870, 36.47476
877.9690, 25.86823
878.4510, 24.74493
878.9330, 29.78622
879.4150, 37.66779
879.8970, 46.20056
880.3790, 43.75360
880.8610, 29.30692
881.3440, 15.58258
881.8260, 9.656708
882.3080, 11.44183
882.7900, 23.58731
883.2720, 46.15433
883.7540, 60.30750
884.2360, 65.29462
884.7180, 66.22723
885.2000, 64.61343
885.6830, 59.37799
886.1650, 48.43811
886.6470, 33.02866
887.1290, 21.47672
887.6110, 15.91327
888.0930, 8.710297
888.5750, 5.929321
889.0570, 14.87683
889.5390, 9.784241
890.0220, 4.109863
890.5040, 20.28299
890.9860, 40.23938
891.4680, 50.96347
891.9500, 45.45752
892.4320, 38.74423
892.9140, 31.89160
893.3960, 27.92728
893.8780, 31.72211
894.3610, 40.24368
894.8430, 44.27600
895.3250, 40.43716
895.8070, 35.14304
896.2890, 29.24567
896.7710, 24.73010
897.2530, 22.13733
897.7350, 22.31342
898.2180, 28.54535
898.7000, 39.97717
899.1820, 47.55304
899.6640, 43.64267
900.1460, 37.00418
900.6280, 36.56558
901.1100, 38.51724
901.5920, 36.03412
902.0750, 30.10333
902.5570, 26.42966
903.0390, 27.43964
903.5210, 31.15854
904.0030, 38.16769
904.4850, 45.25302
904.9670, 43.22543
905.4490, 34.34213
905.9320, 28.13992
906.4140, 26.64832
906.8960, 27.16022
907.3780, 27.85342
907.8600, 28.80447
908.3420, 30.26108
908.8240, 32.18393
909.3060, 34.45193
909.7880, 37.21613
910.2710, 36.83655
910.7530, 31.29214
911.2350, 25.43698
911.7170, 25.43134
912.1990, 29.85318
912.6810, 26.64468
913.1630, 12.40356
913.6450, 6.417847
914.1270, 15.12292
914.6100, 22.04263
915.0920, 16.31216
915.5740, 5.195160
916.0560, 0.5011290
916.5380, 3.521362
917.0200, 7.889618
917.5020, 16.48245
917.9840, 21.69943
918.4660, 20.57361
918.9490, 16.91138
919.4310, 14.11758
919.9130, 11.15045
920.3950, 3.612030
920.8770, 16.07339
921.3590, 23.22708
921.8410, 2.113647
922.3230, 15.91370
922.8050, 15.73770
923.2880, 7.279236
923.7700, 0.3338930
924.2520, 5.606201
924.7340, 6.262146
925.2160, 0.9319460
925.6980, 8.961884
926.1800, 16.29965
926.6620, 22.87000
927.1450, 28.24493
927.6270, 32.98047
928.1090, 39.48154
928.5910, 48.01022
929.0730, 50.88953
929.5550, 36.89844
930.0370, 23.93253
930.5190, 26.42966
931.0020, 35.77341
931.4840, 42.40579
931.9660, 45.65186
932.4480, 49.65649
932.9300, 56.76028
933.4120, 57.36526
933.8940, 32.53592
934.3760, 5.949219
934.8590, 12.93933
935.3410, 38.36584
935.8230, 49.51804
936.3050, 42.99170
936.7870, 37.62927
937.2690, 48.10187
937.7510, 54.06384
938.2330, 56.58951
938.7150, 45.39087
939.1980, 52.14545
939.6800, 51.52991
940.1620, 50.65598
940.6440, 56.17923
941.1260, 68.65335
941.6080, 56.01306
942.0900, 29.74585
942.5720, 15.34842
943.0540, 11.94342
943.5370, 18.71390
944.0190, 34.24292
944.5010, 42.63544
944.9830, 36.50858
945.4650, 27.38440
945.9470, 31.03094
946.4290, 43.34814
946.9110, 46.44028
947.3930, 41.33572
947.8760, 36.05402
948.3580, 31.22546
948.8400, 25.50574
949.3220, 16.67017
949.8040, 11.60526
950.2860, 17.81613
950.7680, 0.7936710
951.2500, 22.08447
951.7320, 34.07504
952.2150, 37.26801
952.6970, 5.301819
953.1790, 18.73621
953.6610, 18.17133
954.1430, 19.15320
954.6250, 23.93680
955.1070, 35.45020
955.5890, 35.13037
956.0720, 17.00232
956.5540, 5.309021
957.0360, 10.71744
957.5180, 19.39163
958.0000, 16.06461
958.4820, 4.590363
958.9640, 7.330811
959.4460, 35.26907
959.9290, 47.81711
960.4110, 34.74295
960.8930, 22.74170
961.3750, 24.82953
961.8570, 30.54523
962.3390, 25.91870
962.8210, 11.60107
963.3030, 4.947235
963.7860, 12.40533
964.2680, 15.79739
964.7500, 9.261414
965.2320, 4.227295
965.7140, 7.778931
966.1960, 15.28250
966.6780, 19.97189
967.1600, 21.70511
967.6420, 22.80127
968.1250, 21.03427
968.6070, 21.86713
969.0890, 27.42892
969.5710, 34.33157
970.0530, 43.94913
970.5350, 52.34354
971.0170, 51.73282
971.4990, 40.51178
971.9810, 28.12787
972.4640, 5.322815
972.9460, 4.860474
973.4280, 14.60257
973.9100, 38.41815
974.3920, 49.76175
974.8740, 50.53174
975.3560, 46.46841
975.8380, 35.88586
976.3200, 30.54315
976.8030, 39.70914
977.2850, 45.40384
977.7670, 36.29169
978.2490, 24.56885
978.7310, 20.21082
979.2130, 22.50748
979.6950, 27.48532
980.1770, 35.15240
980.6590, 36.82239
981.1420, 22.16611
981.6240, 10.56183
982.1060, 16.17081
982.5880, 26.02502
983.0700, 23.78995
983.5520, 11.91525
984.0340, 8.353790
984.5160, 23.54926
984.9990, 32.26868
985.4810, 18.26492
985.9630, 4.311096
986.4450, 4.285156
986.9270, 11.66617
987.4090, 18.98206
987.8910, 25.03186
988.3730, 30.84564
988.8560, 41.42725
989.3380, 41.91382
989.8200, 15.26926
990.3020, 1.995331
990.7840, 16.37582
991.2660, 26.09592
991.7480, 27.62991
992.2300, 3.551514
992.7130, 7.506439
993.1950, 1.641327
993.6770, 4.915588
994.1590, 12.08630
994.6410, 14.32236
995.1230, 2.304382
995.6050, 1.748016
996.0870, 9.056641
996.5690, 4.178253
997.0520, 5.344604
997.5340, 7.1442001E-02
998.0160, 6.948334
998.4980, 13.11899
998.9800, 14.28833
999.4620, 0.7673030
999.9440, 17.43909
1000.426, 22.32349
1000.908, 11.75381
1001.391, 2.632172
1001.873, 2.825531
1002.355, 5.178345
1002.837, 5.019684
1003.319, 6.723083
1003.801, 18.11758
1004.283, 32.41516
1004.765, 36.26318
1005.247, 27.72418
1005.730, 19.96948
1006.212, 17.01978
1006.694, 18.70605
1007.176, 29.75842
1007.658, 39.99976
1008.140, 38.57318
1008.622, 30.09607
1009.104, 23.80750
1009.587, 22.20251
1010.069, 21.72702
1010.551, 19.63239
1011.033, 21.29376
1011.515, 34.57318
1011.997, 47.69650
1012.479, 49.54190
1012.961, 43.92828
1013.443, 38.67966
1013.926, 35.43304
1014.408, 33.59821
1014.890, 33.13156
1015.372, 33.78995
1015.854, 37.52933
1016.336, 40.43240
1016.818, 36.51324
1017.300, 30.35870
1017.783, 32.91321
1018.265, 46.14270
1018.747, 52.76721
1019.229, 41.39575
1019.711, 31.64633
1020.193, 42.55493
1020.675, 48.44965
1021.157, 49.58868
1021.639, 31.78143
1022.122, 38.45123
1022.604, 35.31305
1023.086, 31.75916
1023.568, 41.87704
1024.050, 26.82602
1024.532, 36.72705
1025.014, 36.66815
1025.496, 41.16727
1025.979, 35.79468
1026.461, 33.47211
1026.943, 41.02362
1027.425, 43.10815
1027.907, 36.60083
1028.389, 41.39059
1028.871, 25.99640
1029.353, 28.31433
1029.835, 38.27341
1030.318, 32.25644
1030.800, 36.84656
1031.282, 37.66876
1031.764, 19.45163
1032.246, 34.28943
1032.728, 34.83344
1033.210, 20.70056
1033.692, 34.40683
1034.175, 22.29623
1034.657, 19.40173
1035.139, 23.44135
1035.621, 20.25311
1036.103, 28.46121
1036.585, 25.69482
1037.067, 21.95395
1037.549, 22.49493
1038.031, 10.90411
1038.514, 21.81949
1038.996, 17.36200
1039.478, 18.33905
1039.960, 31.87891
1040.442, 38.03458
1040.924, 27.98184
1041.406, 25.22125
1041.888, 39.40378
1042.370, 50.34537
1042.853, 46.29111
1043.335, 37.12897
1043.817, 34.95099
1044.299, 39.35516
1044.781, 45.33841
1045.263, 56.75284
1045.745, 59.62936
1046.227, 48.91608
1046.710, 38.49991
1047.192, 34.59891
1047.674, 32.53604
1048.156, 26.55087
1048.638, 17.88132
1049.120, 12.62894
1049.602, 10.74170
1050.084, 13.08649
1050.567, 22.16470
1051.049, 28.65689
1051.531, 27.91425
1052.013, 26.66064
1052.495, 26.81918
1052.977, 30.17020
1053.459, 30.72336
1053.941, 28.57172
1054.423, 28.64771
1054.906, 32.69827
1055.388, 35.81360
1055.870, 36.00232
1056.352, 34.17358
1056.834, 29.93753
1057.316, 26.57626
1057.798, 31.53412
1058.280, 43.36560
1058.762, 35.47141
1059.245, 8.596466
1059.727, 0.2718200
1060.209, 19.85019
1060.691, 40.04181
1061.173, 41.42575
1061.655, 33.10294
1062.137, 31.68842
1062.619, 33.83917
1063.102, 22.75314
1063.584, 2.478363
1064.066, 5.370148
1064.548, 2.100769
1065.030, 12.57199
1065.512, 19.44247
1065.994, 20.63828
1066.476, 6.813507
1066.958, 10.48990
1067.441, 3.880493
1067.923, 16.61319
1068.405, 26.88522
1068.887, 25.23862
1069.369, 21.10632
1069.851, 18.60837
1070.333, 18.96274
1070.815, 27.28046
1071.297, 35.22650
1071.780, 29.26987
1072.262, 18.99567
1072.744, 21.19479
1073.226, 31.51831
1073.708, 33.70114
1074.190, 23.37540
1074.672, 13.18008
1075.154, 10.12012
1075.637, 10.86249
1076.119, 17.14124
1076.601, 22.59335
1077.083, 18.20483
1077.565, 9.667755
1078.047, 8.739044
1078.529, 16.32867
1079.011, 20.74075
1079.493, 12.58423
1079.976, 9.382050
1080.458, 24.56128
1080.940, 38.68100
1081.422, 36.51706
1081.904, 28.56659
1082.386, 29.46243
1082.868, 38.27771
1083.350, 42.63492
1083.833, 39.32300
1084.315, 34.50345
1084.797, 24.75723
1085.279, 18.87549
1085.761, 23.48117
1086.243, 29.93219
1086.725, 30.09961
1087.207, 26.28442
1087.689, 23.11865
1088.172, 12.45532
1088.654, 0.3829350
1089.136, 18.24783
1089.618, 29.61926
1090.100, 33.38385
1090.582, 8.270782
1091.064, 20.44708
1091.546, 17.68085
1092.028, 14.30194
1092.511, 31.73047
1092.993, 10.82040
1093.475, 27.91675
1093.957, 29.84253
1094.439, 38.71265
1094.921, 29.44019
1095.403, 30.17206
1095.885, 31.88428
1096.368, 29.00894
1096.850, 22.06390
1097.332, 9.709259
1097.814, 5.793976
1098.296, 8.191895
1098.778, 2.160278
1099.260, 10.83084
1099.742, 13.11575
1100.224, 15.21005
1100.707, 22.66275
1101.189, 31.27878
1101.671, 35.23016
1102.153, 35.58694
1102.635, 33.17310
1103.117, 29.22357
1103.599, 26.46951
1104.081, 25.18781
1104.563, 23.32745
1105.046, 19.43250
1105.528, 17.16397
1106.010, 22.66339
1106.492, 27.86426
1106.974, 25.10950
1107.456, 17.66312
1107.938, 6.386139
1108.420, 4.835449
1108.903, 5.933105
1109.385, 21.15604
1109.867, 1.748444
1110.349, 15.39914
1110.831, 20.29022
1111.313, 9.817291
1111.795, 5.264557
1112.277, 2.235992
1112.760, 1.531128
1113.242, 19.91351
1113.724, 5.104492
1114.206, 15.94379
1114.688, 18.60837
1115.170, 29.69778
1115.652, 23.34766
1116.134, 21.83490
1116.616, 23.12656
1117.099, 22.60266
1117.581, 22.87973
1118.063, 23.80676
1118.545, 25.13919
1119.027, 27.66013
1119.509, 24.76053
1119.991, 14.37735
1120.473, 13.20081
1120.955, 27.00082
1121.438, 37.40527
1121.920, 30.98831
1122.402, 18.81580
1122.884, 18.29776
1123.366, 26.52283
1123.848, 29.16675
1124.330, 27.91531
1124.812, 33.53281
1125.295, 46.24164
1125.777, 49.31314
1126.259, 36.47635
1126.741, 26.40012
1127.223, 39.53299
1127.705, 57.73550
1128.187, 52.43762
1128.669, 38.96936
1129.151, 45.25177
1129.634, 61.01080
1130.116, 58.72452
1130.598, 36.47086
1131.080, 16.21484
1131.562, 7.137543
1132.044, 4.097900
1132.526, 5.916962
1133.008, 10.84769
1133.490, 21.82700
1133.973, 32.01968
1134.455, 31.91785
1134.937, 25.62137
1135.419, 26.31924
1135.901, 37.95651
1136.383, 42.49908
1136.865, 29.11096
1137.347, 22.05106
1137.830, 30.77838
1138.312, 38.32095
1138.794, 36.55173
1139.276, 28.67490
1139.758, 16.64352
1140.240, 2.227295
1140.722, 0.5078740
1141.204, 11.24057
1141.687, 16.80984
1142.169, 14.10083
1142.651, 14.65335
1143.133, 22.42636
1143.615, 29.04297
1144.097, 27.52509
1144.579, 23.45972
1145.061, 31.46011
1145.543, 44.64709
1146.026, 31.43658
1146.508, 1.578888
1146.990, 6.831573
1147.472, 7.717834
1147.954, 23.14474
1148.436, 30.25424
1148.918, 32.74924
1149.400, 33.53488
1149.882, 31.37509
1150.365, 21.29184
1150.847, 10.83328
1151.329, 11.24728
1151.811, 16.39584
1152.293, 12.92511
1152.775, 4.329956
1153.257, 18.23434
1153.739, 26.67746
1154.222, 29.95715
1154.704, 12.58856
1155.186, 21.87964
1155.668, 20.15479
1156.150, 17.84131
1156.632, 30.88776
1157.114, 16.52603
1157.596, 29.33807
1158.078, 31.29926
1158.561, 38.22827
1159.043, 34.40509
1159.525, 33.90372
1160.007, 44.15619
1160.489, 48.45547
1160.971, 37.93362
1161.453, 34.88165
1161.935, 23.36935
1162.417, 8.981903
1162.900, 6.334137
1163.382, 13.84213
1163.864, 27.87592
1164.346, 44.79730
1164.828, 45.85449
1165.310, 30.79141
1165.792, 24.03900
1166.274, 38.21753
1166.757, 50.43610
1167.239, 29.69025
1167.721, 6.759888
1168.203, 15.14230
1168.685, 32.55557
1169.167, 30.02060
1169.649, 16.23752
1170.131, 9.818359
1170.614, 13.46848
1171.096, 18.21509
1171.578, 25.29520
1172.060, 24.95871
1172.542, 0.1868590
1173.024, 14.56146
1173.506, 9.800537
1173.988, 37.00949
1174.470, 36.68848
1174.953, 20.62253
1175.435, 15.85873
1175.917, 23.20700
1176.399, 25.81836
1176.881, 22.10675
1177.363, 24.46231
1177.845, 35.40240
1178.327, 43.92545
1178.809, 45.60837
1179.292, 40.06955
1179.774, 25.22034
1180.256, 7.930511
1180.738, 0.7527160
1181.220, 2.899323
1181.702, 17.07645
1182.184, 35.99170
1182.666, 39.55936
1183.149, 28.78723
1183.631, 20.24985
1184.113, 20.96637
1184.595, 23.17615
1185.077, 19.98102
1185.559, 19.35751
1186.041, 28.15662
1186.523, 39.53345
1187.005, 53.72293
1187.488, 63.24927
1187.970, 51.64636
1188.452, 22.06537
1188.934, 11.04776
1189.416, 32.04272
1189.898, 44.76569
1190.380, 46.33643
1190.862, 46.12802
1191.344, 46.46338
1191.827, 44.76151
1192.309, 38.62140
1192.791, 31.76202
1193.273, 30.38763
1193.755, 32.96429
1194.237, 32.57169
1194.719, 29.54535
1195.201, 23.80118
1195.684, 16.96436
1196.166, 18.01462
1196.648, 28.36716
1197.130, 39.20120
1197.612, 45.56326
1198.094, 47.47467
1198.576, 42.07770
1199.058, 35.26163
1199.541, 29.33395
1200.023, 27.77740
1200.505, 39.08084
1200.987, 55.51413
1201.469, 59.11545
1201.951, 47.41891
1202.433, 37.78619
1202.915, 40.13336
1203.397, 23.81146
1203.880, 45.27258
1204.362, 57.56262
1204.844, 61.17468
1205.326, 30.11865
1205.808, 43.83267
1206.290, 39.60657
1206.772, 34.65140
1207.254, 54.67770
1207.736, 28.67719
1208.219, 48.31085
1208.701, 49.72971
1209.183, 59.48584
1209.665, 51.19211
1210.147, 47.99857
1210.629, 49.48331
1211.111, 61.62720
1211.593, 69.04532
1212.076, 47.34177
1212.558, 21.94772
1213.040, 21.97736
1213.522, 31.63443
1214.004, 27.30289
1214.486, 14.83655
1214.968, 16.11151
1215.450, 34.57547
1215.932, 47.81406
1216.415, 47.24243
1216.897, 45.95761
1217.379, 44.76370
1217.861, 43.39215
1218.343, 41.77539
1218.825, 39.83142
1219.307, 37.26324
1219.789, 34.82339
1220.271, 34.99323
1220.754, 36.84906
1221.236, 30.72949
1221.718, 19.10349
1222.200, 18.02499
1222.682, 26.98895
1223.164, 31.63123
1223.646, 27.93277
1224.128, 26.62466
1224.611, 36.53329
1225.093, 45.64133
1225.575, 43.26099
1226.057, 36.55887
1226.539, 24.15561
1227.021, 16.69296
1227.503, 31.60553
1227.985, 58.50903
1228.468, 73.05563
1228.950, 72.47028
1229.432, 64.45554
1229.914, 39.66403
1230.396, 31.70325
1230.878, 50.23352
1231.360, 59.76190
1231.842, 46.92651
1232.324, 33.60532
1232.807, 36.57220
1233.289, 45.37219
1233.771, 42.50146
1234.253, 31.79004
1234.735, 22.16290
1235.217, 15.07849
1235.699, 16.11536
1236.181, 22.96744
1236.663, 29.88333
1237.146, 34.15994
1237.628, 30.06335
1238.110, 11.80569
1238.592, 3.322113
1239.074, 8.550171
1239.556, 6.263916
1240.038, 12.11319
1240.520, 27.66263
1241.003, 18.53696
1241.485, 2.958740
1241.967, 7.406281
1242.449, 28.67807
1242.931, 44.82419
1243.413, 56.11197
1243.895, 59.62558
1244.377, 55.16830
1244.859, 45.68283
1245.342, 32.67285
1245.824, 31.86816
1246.306, 51.60043
1246.788, 73.67316
1247.270, 80.78506
1247.752, 78.71729
1248.234, 61.75519
1248.716, 47.68088
1249.198, 46.01532
1249.681, 46.35669
1250.163, 50.62076
1250.645, 53.97540
1251.127, 50.06741
1251.609, 35.76666
1252.091, 24.86383
1252.573, 21.12802
1253.055, 16.21893
1253.538, 6.643555
1254.020, 0.1145320
1254.502, 0.1556700
1254.984, 3.538574
1255.466, 9.140625
1255.948, 8.980682
1256.430, 6.264221
1256.912, 0.0000000E+00




