140.066400	0.000000
140.548600	3.665649
141.030700	4.652100
141.512800	4.068115
141.994900	2.619141
142.477000	0.548706
142.959100	0.207520
143.441300	0.888428
143.923400	2.746826
144.405500	4.110107
144.887600	4.562622
145.369700	3.508179
145.851800	3.021973
146.334000	3.682861
146.816100	5.151123
147.298200	7.393066
147.780300	9.982788
148.262400	11.934330
148.744500	11.743160
149.226700	8.781860
149.708800	7.756592
150.190900	9.530518
150.673000	11.575680
151.155100	12.534420
151.637200	12.282230
152.119400	11.374760
152.601500	9.810425
153.083600	7.136841
153.565700	6.139038
154.047800	8.202881
154.529900	11.428340
155.012100	13.647950
155.494200	14.146850
155.976300	13.754270
156.458400	14.204830
156.940500	15.977540
157.422700	16.996340
157.904800	15.006470
158.386900	11.994020
158.869000	10.744140
159.351100	11.585450
159.833200	13.538450
160.315400	15.600710
160.797500	17.247190
161.279600	18.319460
161.761700	19.714720
162.243800	21.660160
162.725900	22.571040
163.208100	20.610470
163.690200	18.587040
164.172300	18.496220
164.654400	20.407230
165.136500	22.657710
165.618600	24.392460
166.100800	23.150150
166.582900	20.954830
167.065000	18.539670
167.547100	16.200070
168.029200	14.129030
168.511300	12.488400
168.993500	10.997920
169.475600	10.003420
169.957700	10.291870
170.439800	10.781980
170.921900	12.028080
171.404000	12.910770
171.886200	12.451900
172.368300	10.312620
172.850400	7.150269
173.332500	4.526611
173.814600	1.693481
174.296700	0.558105
174.778900	2.930054
175.261000	6.489258
175.743100	8.243164
176.225200	6.754761
176.707300	3.063110
177.189400	0.595459
177.671600	0.110962
178.153700	0.515015
178.635800	0.767212
179.117900	0.923096
179.600000	1.109863
180.082100	1.428467
180.564300	1.659424
181.046400	1.249268
181.528500	0.065430
182.010600	1.563477
182.492700	3.244995
182.974900	4.917236
183.457000	5.717407
183.939100	4.824463
184.421200	2.996460
184.903300	2.046997
185.385400	2.420166
185.867600	2.959229
186.349700	2.598633
186.831800	1.292114
187.313900	0.287964
187.796000	0.446045
188.278100	1.078735
188.760300	1.539307
189.242400	1.856323
189.724500	1.745117
190.206600	0.327515
190.688700	3.094482
191.170800	4.982056
191.653000	2.645630
192.135100	1.099731
192.617200	3.851563
193.099300	4.778198
193.581400	4.453857
194.063500	3.885376
194.545700	2.992798
195.027800	1.977417
195.509900	0.623169
195.992000	0.686646
196.474100	1.578857
196.956200	1.881226
197.438400	1.727905
197.920500	0.293091
198.402600	1.649780
198.884700	2.992310
199.366800	3.079102
199.848900	2.717407
200.331100	2.775757
200.813200	3.705811
201.295300	5.365845
201.777400	7.131104
202.259500	9.795898
202.741600	11.652590
203.223800	11.995970
203.705900	11.531130
204.188000	11.205200
204.670100	11.526490
205.152200	12.362430
205.634400	13.111330
206.116500	13.675050
206.598600	14.242190
207.080700	14.504760
207.562800	14.809080
208.044900	16.036130
208.527100	18.874020
209.009200	22.624630
209.491300	24.332640
209.973400	22.672730
210.455500	21.058720
210.937600	20.745360
211.419800	21.393920
211.901900	22.187990
212.384000	22.866580
212.866100	23.315060
213.348200	23.212040
213.830300	22.122310
214.312500	21.174440
214.794600	21.214480
215.276700	22.062010
215.758800	22.749510
216.240900	22.673100
216.723000	22.302860
217.205200	22.555050
217.687300	23.767580
218.169400	24.932130
218.651500	25.322270
219.133600	24.947140
219.615700	24.110110
220.097900	22.055300
220.580000	20.209470
221.062100	20.350830
221.544200	23.046630
222.026300	26.159910
222.508400	27.560670
222.990600	27.103150
223.472700	26.512330
223.954800	25.986570
224.436900	25.757570
224.919000	26.119380
225.401100	27.128050
225.883300	28.274290
226.365400	28.898560
226.847500	28.858520
227.329600	29.087040
227.811700	30.117800
228.293800	31.278080
228.776000	32.113280
229.258100	32.515140
229.740200	32.809570
230.222300	33.651250
230.704400	35.550660
231.186600	36.251710
231.668700	34.665280
232.150800	32.495480
232.632900	30.719120
233.115000	29.527830
233.597100	28.779540
234.079300	28.323120
234.561400	28.273320
235.043500	28.124150
235.525600	27.646970
236.007700	27.296140
236.489800	27.680300
236.972000	28.747680
237.454100	29.624390
237.936200	28.741210
238.418300	23.970700
238.900400	22.963990
239.382500	29.498170
239.864700	36.366460
240.346800	38.548460
240.828900	35.593870
241.311000	30.788820
241.793100	28.219120
242.275200	29.186400
242.757400	28.636840
243.239500	24.643430
243.721600	20.830440
244.203700	19.887820
244.685800	21.895870
245.167900	24.711910
245.650100	25.996090
246.132200	25.251590
246.614300	24.887450
247.096400	24.913940
247.578500	25.229490
248.060600	25.860600
248.542800	26.590580
249.024900	27.310790
249.507000	28.233150
249.989100	29.497680
250.471200	29.580080
250.953300	27.223750
251.435500	24.669070
251.917600	23.359620
252.399700	23.365970
252.881800	24.080810
253.363900	25.292240
253.846000	26.909060
254.328200	27.190430
254.810300	24.594730
255.292400	22.004270
255.774500	22.016360
256.256600	24.383300
256.738700	26.274170
257.220900	25.417600
257.703000	22.218020
258.185100	20.121340
258.667200	19.952030
259.149300	20.221070
259.631400	19.811400
260.113600	18.811520
260.595700	18.013920
261.077800	17.519410
261.559900	17.787480
262.042000	19.770260
262.524100	25.449580
263.006300	30.538820
263.488400	31.475950
263.970500	28.673580
264.452600	25.766240
264.934700	24.378300
265.416800	23.982540
265.899000	23.583130
266.381100	23.508300
266.863200	22.729130
267.345300	19.453740
267.827500	14.175780
268.309600	11.078610
268.791700	13.008790
269.273800	16.754390
269.755900	17.559330
270.238000	14.744870
270.720200	12.342040
271.202300	14.463260
271.684400	20.172240
272.166500	22.788210
272.648600	19.079710
273.130700	13.227540
273.612900	9.265625
274.095000	7.181152
274.577100	6.112549
275.059200	5.541504
275.541300	5.538208
276.023400	6.604492
276.505600	9.717773
276.987700	12.708010
277.469800	13.671510
277.951900	12.950320
278.434000	12.328120
278.916100	13.221560
279.398300	15.208370
279.880400	16.437620
280.362500	16.943850
280.844600	16.266970
281.326700	13.070430
281.808800	8.583252
282.291000	5.714966
282.773100	6.719238
283.255200	10.526860
283.737300	13.899290
284.219400	17.508790
284.701500	19.230710
285.183700	16.432500
285.665800	11.686280
286.147900	9.023438
286.630000	11.000730
287.112100	15.450320
287.594200	17.363650
288.076400	15.775510
288.558500	13.859380
289.040600	12.223630
289.522700	11.101440
290.004800	10.946170
290.486900	12.052610
290.969100	13.730710
291.451200	14.829960
291.933300	15.171390
292.415400	15.451050
292.897500	16.628420
293.379600	17.579590
293.861800	17.102910
294.343900	14.903810
294.826000	12.308960
295.308100	11.210820
295.790200	12.033940
296.272300	12.295900
296.754500	10.463620
297.236600	8.957397
297.718700	9.463013
298.200800	11.907350
298.682900	14.460690
299.165000	15.188720
299.647200	13.873540
300.129300	12.899660
300.611400	12.870480
301.093500	12.696780
301.575600	11.980590
302.057700	10.796020
302.539900	9.320435
303.022000	7.343994
303.504100	4.946533
303.986200	4.085938
304.468300	6.357178
304.950400	8.405884
305.432600	9.064453
305.914700	8.658936
306.396800	7.801147
306.878900	6.705811
307.361000	5.536133
307.843100	5.046265
308.325300	5.597412
308.807400	6.331055
309.289500	7.400513
309.771600	8.351318
310.253700	8.574585
310.735800	7.755615
311.218000	6.298584
311.700100	4.910034
312.182200	2.978882
312.664300	2.524048
313.146400	5.567017
313.628500	9.064209
314.110700	10.250980
314.592800	8.427856
315.074900	5.556641
315.557000	4.507446
316.039200	5.808472
316.521300	6.973633
317.003400	7.593750
317.485500	8.132568
317.967600	9.314941
318.449700	10.933470
318.931900	11.692260
319.414000	9.636719
319.896100	4.312134
320.378200	0.875000
320.860300	0.664673
321.342400	1.295044
321.824600	2.145386
322.306700	3.114380
322.788800	4.222290
323.270900	5.656250
323.753000	7.292358
324.235100	8.087891
324.717300	7.318237
325.199400	6.056641
325.681500	4.356445
326.163600	2.669922
326.645700	1.613037
327.127800	1.544434
327.610000	2.125610
328.092100	2.641602
328.574200	3.264038
329.056300	3.458740
329.538400	2.747681
330.020500	1.715332
330.502700	0.621948
330.984800	0.473999
331.466900	1.007202
331.949000	0.331177
332.431100	4.350708
332.913200	6.705444
333.395400	5.290039
333.877500	3.087769
334.359600	1.449219
334.841700	0.555664
335.323800	0.097900
335.805900	0.125122
336.288100	0.112305
336.770200	0.037842
337.252300	0.350708
337.734400	0.030396
338.216500	2.082886
338.698600	5.178223
339.180800	7.359009
339.662900	7.165405
340.145000	5.240356
340.627100	4.118408
341.109200	3.902466
341.591300	4.384644
342.073500	6.083740
342.555600	8.116211
343.037700	9.396606
343.519800	9.467163
344.001900	8.766357
344.484000	8.004517
344.966200	7.211426
345.448300	6.177124
345.930400	4.091187
346.412500	2.188965
346.894600	1.775269
347.376700	3.023560
347.858900	4.123901
348.341000	2.620850
348.823100	1.386963
349.305200	3.231201
349.787300	1.013672
350.269400	2.177368
350.751600	4.496338
351.233700	5.956665
351.715800	6.783936
352.197900	7.351318
352.680000	7.406860
353.162100	5.757324
353.644300	1.423950
354.126400	2.346924
354.608500	3.619141
355.090600	3.291016
355.572700	2.274048
356.054800	0.341309
356.537000	1.509155
357.019100	1.546509
357.501200	0.431885
357.983300	1.754517
358.465400	0.776978
358.947500	1.119629
359.429700	2.263062
359.911800	2.400269
360.393900	2.192017
360.876000	1.741943
361.358100	1.197388
361.840200	1.458740
362.322400	3.175903
362.804500	5.082153
363.286600	5.702515
363.768700	5.169800
364.250800	4.752808
364.732900	5.079956
365.215100	5.784180
365.697200	6.365967
366.179300	6.828247
366.661400	6.872192
367.143600	5.877075
367.625700	4.261475
368.107800	3.330933
368.589900	3.290283
369.072000	3.954224
369.554100	5.566528
370.036300	7.955200
370.518400	9.929199
371.000500	10.804440
371.482600	11.054930
371.964700	11.896240
372.446800	13.849730
372.929000	15.055300
373.411100	14.188720
373.893200	12.207150
374.375300	10.945680
374.857400	10.942020
375.339500	11.284550
375.821700	10.720090
376.303800	9.091675
376.785900	7.984375
377.268000	8.078003
377.750100	8.372070
378.232200	7.939331
378.714400	6.791870
379.196500	5.664429
379.678600	5.230957
380.160700	5.331909
380.642800	4.248779
381.124900	0.055054
381.607100	3.125488
382.089200	2.599609
382.571300	0.175049
383.053400	2.737793
383.535500	4.066406
384.017600	4.416626
384.499800	4.319824
384.981900	3.534058
385.464000	2.674316
385.946100	1.025879
386.428200	0.232666
386.910300	0.358765
387.392500	2.764404
387.874600	5.369873
388.356700	6.386475
388.838800	5.519775
389.320900	5.107056
389.803000	5.742676
390.285200	6.216431
390.767300	5.883545
391.249400	5.032837
391.731500	4.300903
392.213600	4.073486
392.695700	4.203857
393.177900	4.119751
393.660000	3.356079
394.142100	3.052124
394.624200	4.034546
395.106300	5.061401
395.588400	4.801514
396.070600	3.023682
396.552700	0.841064
397.034800	0.295166
397.516900	0.160889
397.999000	0.135376
398.481100	0.546753
398.963300	1.165283
399.445400	2.305664
399.927500	3.705078
400.409600	4.723633
400.891700	4.821411
401.373800	4.249146
401.856000	4.093140
402.338100	4.497192
402.820200	5.078247
403.302300	6.346436
403.784400	7.430786
404.266500	7.217041
404.748700	5.317749
405.230800	2.932983
405.712900	1.422607
406.195000	0.795898
406.677100	0.576904
407.159200	0.747314
407.641400	1.458984
408.123500	2.875488
408.605600	4.779785
409.087700	6.296143
409.569800	7.163574
410.051900	7.251221
410.534100	5.787598
411.016200	2.200195
411.498300	0.779053
411.980400	1.013794
412.462500	0.279785
412.944600	1.209961
413.426800	1.501221
413.908900	1.436279
414.391000	0.957397
414.873100	0.134155
415.355300	0.681519
415.837400	1.559326
416.319500	2.043579
416.801600	1.404297
417.283700	0.366211
417.765800	1.917114
418.248000	2.843994
418.730100	3.392212
419.212200	3.832886
419.694300	4.197876
420.176400	4.361694
420.658500	4.033813
421.140700	3.356079
421.622800	3.742554
422.104900	6.701416
422.587000	8.964355
423.069100	8.379517
423.551200	6.344849
424.033400	5.830566
424.515500	8.118408
424.997600	11.137450
425.479700	10.860470
425.961800	4.284912
426.443900	0.438477
426.926100	1.280029
427.408200	3.222046
427.890300	3.860107
428.372400	3.092407
428.854500	2.076172
429.336600	1.743164
429.818800	2.070313
430.300900	2.430420
430.783000	2.750977
431.265100	3.215088
431.747200	3.899292
432.229300	4.728882
432.711500	5.650513
433.193600	6.637573
433.675700	7.597656
434.157800	8.483154
434.639900	9.466553
435.122000	9.710205
435.604200	8.276123
436.086300	6.787109
436.568400	6.062866
437.050500	5.978394
437.532600	5.861816
438.014700	4.912109
438.496900	3.675049
438.979000	4.513916
439.461100	8.569214
439.943200	11.502200
440.425300	10.752080
440.907400	8.275024
441.389600	5.947876
441.871700	4.096313
442.353800	2.774048
442.835900	2.079834
443.318000	1.983887
443.800100	2.521118
444.282300	4.156006
444.764400	5.555664
445.246500	4.693848
445.728600	2.150269
446.210700	0.705078
446.692800	2.242188
447.175000	4.458618
447.657100	4.732544
448.139200	3.240601
448.621300	2.188599
449.103400	2.985229
449.585500	4.778687
450.067700	5.016602
450.549800	2.641235
451.031900	1.214233
451.514000	2.187012
451.996100	4.341797
452.478200	6.532959
452.960400	8.448608
453.442500	9.614624
453.924600	9.375122
454.406700	7.507202
454.888800	6.603882
455.370900	7.331909
455.853100	8.217529
456.335200	9.404541
456.817300	10.238770
457.299400	9.360352
457.781500	6.127075
458.263600	1.993042
458.745800	0.123657
459.227900	1.871948
459.710000	3.116333
460.192100	2.955200
460.674200	2.977051
461.156300	4.400146
461.638500	6.959351
462.120600	9.392944
462.602700	10.699460
463.084800	11.077510
463.566900	11.599370
464.049100	12.364750
464.531200	12.964720
465.013300	13.399660
465.495400	13.532840
465.977500	13.238530
466.459700	12.478390
466.941800	11.236210
467.423900	9.051392
467.906000	6.167847
468.388100	4.244263
468.870200	3.670044
469.352400	3.739624
469.834500	4.403809
470.316600	5.466309
470.798700	6.010864
471.280800	5.515991
471.762900	4.673584
472.245100	3.777344
472.727200	2.967896
473.209300	3.116333
473.691400	4.914673
474.173500	7.308594
474.655600	8.049561
475.137800	6.530273
475.619900	5.802002
476.102000	7.436035
476.584100	9.292358
477.066200	9.139893
477.548300	7.079712
478.030500	5.004883
478.512600	4.375122
478.994700	5.039429
479.476800	5.428589
479.958900	4.176392
480.441000	4.388306
480.923200	8.336426
481.405300	12.960690
481.887400	14.832280
482.369500	13.274540
482.851600	10.459720
483.333700	9.036743
483.815900	9.222778
484.298000	8.927979
484.780100	7.325562
485.262200	6.194092
485.744300	6.458008
486.226400	7.511963
486.708600	8.442749
487.190700	8.983032
487.672800	9.113892
488.154900	8.504272
488.637000	7.064941
489.119100	6.185425
489.601300	6.553223
490.083400	7.199097
490.565500	7.246460
491.047600	6.769287
491.529700	6.274536
492.011800	6.062012
492.494000	5.891602
492.976100	5.294189
493.458200	4.305786
493.940300	3.794434
494.422400	4.329224
494.904500	5.454102
495.386700	6.063232
495.868800	5.912231
496.350900	5.827637
496.833000	6.558228
497.315100	7.211426
497.797200	6.348389
498.279400	4.068604
498.761500	2.265869
499.243600	2.708130
499.725700	5.225342
500.207800	6.780762
500.689900	7.305420
501.172100	6.927002
501.654200	4.623535
502.136300	1.927490
502.618400	0.488525
503.100500	0.731567
503.582600	1.854004
504.064800	2.945190
504.546900	3.999512
505.029000	5.190918
505.511100	7.206177
505.993200	8.470703
506.475300	8.095947
506.957500	6.705444
507.439600	5.165649
507.921700	3.696411
508.403800	2.690674
508.885900	2.797852
509.368000	3.993774
509.850200	4.922852
510.332300	5.168579
510.814400	5.276733
511.296500	6.071655
511.778600	7.298340
512.260700	7.706055
512.742900	6.080688
513.225000	4.345093
513.707100	4.556641
514.189200	6.238159
514.671300	7.103516
515.153400	5.991699
515.635600	4.018188
516.117700	3.474731
516.599800	5.198120
517.081900	6.238037
517.564000	6.137085
518.046100	5.780151
518.528300	6.071289
519.010400	6.709351
519.492500	6.462280
519.974600	4.385620
520.456700	1.205811
520.938800	0.269897
521.421000	0.952637
521.903100	1.903809
522.385200	1.540894
522.867300	1.366943
523.349400	3.116943
523.831500	6.415771
524.313700	8.776367
524.795800	7.702881
525.277900	4.249390
525.760000	2.209717
526.242100	1.894897
526.724200	1.802979
527.206400	0.912720
527.688500	0.124512
528.170600	0.899658
528.652700	3.741699
529.134800	5.923584
529.616900	5.285400
530.099100	3.373901
530.581200	2.829468
531.063300	3.963013
531.545400	5.411621
532.027500	6.244507
532.509600	6.533691
532.991800	6.761475
533.473900	7.400391
533.956000	7.415405
534.438100	6.235840
534.920200	4.475464
535.402300	2.519409
535.884500	0.644287
536.366600	0.390747
536.848700	0.421753
537.330800	3.064819
537.812900	4.375488
538.295100	3.296753
538.777200	2.208862
539.259300	1.390869
539.741500	0.976807
540.223600	1.331421
540.705700	2.505127
541.187800	3.562378
541.669900	3.342407
542.152000	2.065430
542.634200	1.351074
543.116300	1.588745
543.598400	1.712646
544.080500	0.639038
544.562600	0.944214
545.044700	1.706299
545.526900	1.162598
546.009000	0.362915
546.491100	0.122070
546.973200	0.429810
547.455300	0.763062
547.937400	1.161987
548.419600	1.851807
548.901700	3.273193
549.383800	5.479492
549.865900	5.978516
550.348000	3.576172
550.830100	1.219604
551.312300	0.608154
551.794400	1.795166
552.276500	2.171631
552.758600	1.737549
553.240700	0.770752
553.722800	0.561035
554.205000	2.315308
554.687100	3.341675
555.169200	3.080322
555.651300	2.868164
556.133400	3.491211
556.615500	4.311768
557.097700	4.448242
557.579800	3.617432
558.061900	2.503540
558.544000	1.338013
559.026100	0.352295
559.508200	0.571167
559.990400	2.349243
560.472500	4.486572
560.954600	5.956909
561.436700	6.848755
561.918800	7.653809
562.400900	8.870728
562.883100	9.380981
563.365200	8.571167
563.847300	6.888794
564.329400	4.562012
564.811500	1.796021
565.293600	0.418945
565.775800	0.991455
566.257900	0.081787
566.740000	0.797485
567.222100	1.107666
567.704200	1.079224
568.186300	0.178589
568.668500	0.752808
569.150600	0.635193
569.632700	0.661438
570.114800	1.992493
570.596900	2.063904
571.079000	1.114746
571.561200	0.797791
572.043300	1.422607
572.525400	1.787476
573.007500	0.737061
573.489600	0.703796
573.971700	0.924316
574.453900	0.500977
574.936000	2.088745
575.418100	3.514526
575.900200	4.506287
576.382300	4.493713
576.864400	3.499939
577.346600	2.217590
577.828700	0.958923
578.310800	0.043274
578.792900	0.348206
579.275000	4.362549
579.757100	6.901489
580.239300	6.789917
580.721400	5.781067
581.203500	4.659729
581.685600	3.886047
582.167700	4.415955
582.649800	7.548340
583.132000	11.930050
583.614100	12.243410
584.096200	6.895630
584.578300	2.936523
585.060400	3.204834
585.542500	4.935791
586.024700	5.971130
586.506800	6.266541
586.988900	6.432495
587.471000	6.872925
587.953100	7.242310
588.435200	7.056335
588.917400	6.396179
589.399500	5.769592
589.881600	5.450500
590.363700	5.093933
590.845800	3.935974
591.327900	1.169006
591.810100	0.064514
592.292200	2.271179
592.774300	4.455627
593.256400	4.508545
593.738500	3.262512
594.220600	2.545105
594.702800	3.273376
595.184900	4.624817
595.667000	5.327148
596.149100	5.330750
596.631200	4.989685
597.113300	3.841248
597.595500	3.091919
598.077600	3.521240
598.559700	4.596252
599.041800	5.385986
599.523900	5.744263
600.006000	5.764282
600.488200	5.023560
600.970300	4.053040
601.452400	4.398743
601.934500	6.404114
602.416600	8.474670
602.898700	9.275635
603.380900	8.973877
603.863000	8.853455
604.345100	9.110352
604.827200	9.190918
605.309300	8.945496
605.791400	8.497742
606.273600	7.811951
606.755700	6.986633
607.237800	6.438660
607.719900	6.677002
608.202000	7.429077
608.684100	7.148621
609.166300	5.223694
609.648400	3.837341
610.130500	4.381348
610.612600	5.348999
611.094700	5.415466
611.576800	4.566406
612.059000	3.661682
612.541100	2.758667
613.023200	2.205994
613.505300	2.505493
613.987400	3.551758
614.469500	4.943848
614.951700	6.623718
615.433800	8.122803
615.915900	8.739624
616.398000	8.498352
616.880100	7.126465
617.362200	2.387634
617.844400	0.977661
618.326500	0.051086
618.808600	3.440918
619.290700	6.050232
619.772800	6.724426
620.254900	6.283081
620.737100	5.321777
621.219200	3.917358
621.701300	3.991638
622.183400	6.181274
622.665500	8.186218
623.147600	8.643250
623.629800	8.122864
624.111900	7.343323
624.594000	5.992798
625.076100	5.302246
625.558200	6.799622
626.040300	8.735840
626.522500	8.651001
627.004600	6.625671
627.486700	4.426208
627.968800	2.992249
628.450900	2.310791
628.933000	2.402161
629.415200	3.996887
629.897300	5.082642
630.379400	5.717957
630.861500	5.810303
631.343600	4.798828
631.825700	3.106873
632.307900	2.137268
632.790000	2.508301
633.272100	3.590271
633.754200	4.490662
634.236300	5.270142
634.718400	6.587708
635.200600	8.764282
635.682700	10.886960
636.164800	12.380250
636.646900	13.166140
637.129100	12.843260
637.611200	10.061100
638.093300	7.747803
638.575400	7.399963
639.057600	7.727478
639.539700	6.987244
640.021800	5.124512
640.503900	3.649231
640.986000	3.911438
641.468100	5.453064
641.950300	5.971680
642.432400	5.025330
642.914500	4.137756
643.396600	3.608948
643.878700	3.249329
644.360800	2.781006
644.843000	2.320068
645.325100	2.439514
645.807200	3.642761
646.289300	5.295410
646.771400	7.509949
647.253500	9.709839
647.735700	9.385986
648.217800	5.641052
648.699900	1.627686
649.182000	1.014648
649.664100	3.986389
650.146200	6.372009
650.628400	8.218506
651.110500	9.416565
651.592600	9.734375
652.074700	9.512329
652.556800	9.223022
653.038900	8.840088
653.521100	7.720215
654.003200	4.807800
654.485300	1.009399
654.967400	1.086670
655.449500	1.395874
655.931600	0.924927
656.413800	0.374268
656.895900	1.827698
657.378000	2.490417
657.860100	2.395264
658.342200	2.303162
658.824300	2.343262
659.306500	2.382385
659.788600	2.277344
660.270700	2.144104
660.752800	2.219238
661.234900	2.553345
661.717000	2.891541
662.199200	2.933655
662.681300	2.694153
663.163400	2.442932
663.645500	1.918213
664.127600	1.885193
664.609700	3.236206
665.091900	4.759827
665.574000	5.311584
666.056100	4.842834
666.538200	4.295410
667.020300	3.793091
667.502400	3.635864
667.984600	4.569702
668.466700	6.184021
668.948800	6.967712
669.430900	6.331482
669.913000	5.218323
670.395100	4.932922
670.877300	5.690918
671.359400	5.531006
671.841500	2.891479
672.323600	1.206116
672.805700	1.646606
673.287800	3.150452
673.770000	5.108521
674.252100	7.186829
674.734200	8.197083
675.216300	6.372070
675.698400	3.086731
676.180500	1.585938
676.662700	1.771790
677.144800	2.007751
677.626900	1.775940
678.109000	1.109497
678.591100	0.152893
679.073200	2.324097
679.555400	3.158752
680.037500	1.927063
680.519600	0.268677
681.001700	1.597229
681.483800	3.354797
681.965900	4.813904
682.448100	5.841064
682.930200	6.042175
683.412300	4.657166
683.894400	2.218323
684.376500	0.751831
684.858600	0.294067
685.340800	0.795288
685.822900	2.970215
686.305000	5.269348
686.787100	5.524902
687.269200	3.831177
687.751300	2.174622
688.233500	0.080444
688.715600	1.246582
689.197700	0.702026
689.679800	3.926636
690.161900	5.532654
690.644000	4.883301
691.126200	3.368835
691.608300	2.113586
692.090400	1.245605
692.572500	1.789246
693.054600	4.073425
693.536700	6.912170
694.018900	11.737240
694.501000	15.430180
694.983100	14.430480
695.465200	9.337708
695.947300	5.071533
696.429400	3.175354
696.911600	2.438843
697.393700	2.196472
697.875800	2.482910
698.357900	3.257385
698.840000	4.549988
699.322100	6.617676
699.804300	9.613098
700.286400	13.635010
700.768500	19.735960
701.250600	29.441100
701.732700	37.962520
702.214800	44.791810
702.697000	49.685490
703.179100	52.028750
703.661200	52.163330
704.143300	51.344850
704.625400	48.813420
705.107500	46.857060
705.589700	47.741460
706.071800	50.456300
706.553900	52.646910
707.036000	54.050230
707.518100	56.859440
708.000200	63.103580
708.482400	71.984310
708.964500	79.393980
709.446600	83.914430
709.928700	89.765380
710.410800	95.751830
710.892900	104.561200
711.375100	117.410800
711.857200	134.406300
712.339300	155.419400
712.821400	180.806300
713.303500	209.127400
713.785600	241.126800
714.267800	274.617600
714.749900	310.005500
715.232000	345.847800
715.714100	366.160500
716.196200	360.390300
716.678300	331.412200
717.160500	285.811500
717.642600	208.008100
718.124700	144.491000
718.606800	96.379880
719.088900	60.777890
719.571000	40.411440
720.053200	30.471010
720.535300	23.839420
721.017400	18.609010
721.499500	14.540830
721.981600	11.639710
722.463700	9.689819
722.945900	8.228699
723.428000	7.231384
723.910100	7.053345
724.392200	8.009338
724.874300	9.393616
725.356400	9.940796
725.838600	9.666321
726.320700	8.497681
726.802800	4.717407
727.284900	2.017761
727.767000	2.266357
728.249100	3.834167
728.731300	4.854248
729.213400	4.947632
729.695500	4.614929
730.177600	3.757507
730.659700	2.949280
731.141800	3.080505
731.624000	4.092590
732.106100	5.886963
732.588200	8.583801
733.070300	10.892640
733.552400	11.144590
734.034500	9.232971
734.516700	7.556030
734.998800	6.448853
735.480900	5.146118
735.963100	2.776855
736.445200	0.729492
736.927300	0.418152
737.409400	1.654236
737.891500	2.710022
738.373700	2.443420
738.855800	1.824890
739.337900	1.920044
739.820000	2.592896
740.302100	3.602417
740.784200	4.891724
741.266400	5.744568
741.748500	5.420288
742.230600	4.311768
742.712700	4.424683
743.194800	7.056763
743.676900	8.552612
744.159100	8.020935
744.641200	7.049438
745.123300	6.419983
745.605400	5.966064
746.087500	5.090149
746.569600	3.360779
747.051800	2.183472
747.533900	2.898987
748.016000	4.531189
748.498100	5.355591
748.980200	5.362122
749.462300	5.594482
749.944500	6.615906
750.426600	8.013428
750.908700	9.102844
751.390800	9.996948
751.872900	10.074650
752.355000	8.345520
752.837200	6.892761
753.319300	7.094666
753.801400	7.572327
754.283500	6.422852
754.765600	3.490845
755.247700	1.309570
755.729900	1.329102
756.212000	2.398193
756.694100	4.105652
757.176200	5.893860
757.658300	6.361755
758.140400	5.177551
758.622600	3.446106
759.104700	2.208435
759.586800	1.422180
760.068900	0.775879
760.551000	0.483887
761.033100	0.242615
761.515300	2.394043
761.997400	4.150391
762.479500	4.110657
762.961600	2.626770
763.443700	0.796021
763.925800	1.597168
764.408000	3.531006
764.890100	4.434937
765.372200	4.658142
765.854300	4.367126
766.336400	3.752075
766.818500	3.192810
767.300700	2.877563
767.782800	2.906799
768.264900	3.648804
768.747000	5.141357
769.229100	6.070313
769.711200	6.283264
770.193400	6.157959
770.675500	5.584778
771.157600	5.006592
771.639700	5.246338
772.121800	6.521667
772.603900	6.925537
773.086100	5.206299
773.568200	3.578064
774.050300	3.698792
774.532400	4.425354
775.014500	3.756409
775.496600	1.525024
775.978800	0.278076
776.460900	0.202698
776.943000	2.080017
777.425100	3.342102
777.907200	3.998962
778.389300	4.279724
778.871500	4.161072
779.353600	3.979431
779.835700	4.016235
780.317800	4.241882
780.799900	4.466553
781.282000	4.953857
781.764200	5.048523
782.246300	4.511475
782.728400	3.752686
783.210500	2.577576
783.692600	1.468018
784.174700	1.503662
784.656900	3.174316
785.139000	4.889771
785.621100	5.162903
786.103200	4.546387
786.585300	3.987732
787.067400	3.553772
787.549600	3.131226
788.031700	2.619812
788.513800	2.610901
788.995900	4.317505
789.478000	8.060425
789.960100	8.820984
790.442300	3.897278
790.924400	0.342163
791.406500	0.174500
791.888600	1.683472
792.370700	4.217163
792.852800	7.386108
793.335000	9.684143
793.817100	10.500980
794.299200	10.484680
794.781300	9.245422
795.263400	7.857727
795.745500	8.330078
796.227700	10.365780
796.709800	11.564940
797.191900	10.436100
797.674000	7.932373
798.156100	5.663330
798.638200	3.605286
799.120400	2.276550
799.602500	1.744873
800.084600	1.825134
800.566700	2.615845
801.048800	3.827942
801.530900	5.119324
802.013100	6.667419
802.495200	7.287964
802.977300	6.223511
803.459400	4.979675
803.941500	3.982483
804.423600	3.284790
804.905800	2.737671
805.387900	2.464478
805.870000	3.206543
806.352100	6.231323
806.834200	9.466858
807.316300	9.741394
807.798500	7.599792
808.280600	4.699280
808.762700	1.314270
809.244800	0.956238
809.726900	0.907104
810.209000	0.971313
810.691200	3.279114
811.173300	6.654114
811.655400	8.969727
812.137500	10.202760
812.619600	10.335690
813.101700	8.697205
813.583900	6.287537
814.066000	4.265869
814.548100	2.777588
815.030200	1.935608
815.512300	2.200134
815.994400	2.742249
816.476600	2.758118
816.958700	2.607117
817.440800	3.055664
817.922900	4.217773
818.405000	5.624634
818.887100	6.983704
819.369300	7.933960
819.851400	7.654053
820.333500	6.198303
820.815600	5.182556
821.297700	4.941467
821.779800	4.866394
822.262000	4.314148
822.744100	3.664124
823.226200	4.171692
823.708300	6.650024
824.190400	8.398682
824.672500	9.610107
825.154700	9.792664
825.636800	8.054565
826.118900	5.492737
826.601000	3.466919
827.083100	2.233887
827.565200	1.251282
828.047400	0.160156
828.529500	1.251282
829.011600	0.896667
829.493700	0.479126
829.975800	1.976196
830.457900	3.337952
830.940100	4.158936
831.422200	4.062256
831.904300	3.379700
832.386400	3.095154
832.868500	3.290100
833.350600	3.449158
833.832800	3.583862
834.314900	3.596436
834.797100	3.361450
835.279200	2.935730
835.761300	2.349915
836.243400	1.493652
836.725500	1.074219
837.207600	1.405396
837.689800	1.986084
838.171900	2.788940
838.654000	3.574829
839.136100	4.056091
839.618200	4.221497
840.100300	4.250671
840.582500	4.069519
841.064600	4.150513
841.546700	5.750732
842.028800	8.129211
842.510900	8.526611
842.993000	6.669922
843.475200	5.004639
843.957300	5.035950
844.439400	6.145874
844.921500	7.174866
845.403600	8.297974
845.885700	8.355347
846.367900	6.628479
846.850000	5.113464
847.332100	4.830872
847.814200	4.894226
848.296300	4.303528
848.778400	3.076477
849.260600	2.054443
849.742700	1.446655
850.224800	1.016541
850.706900	0.532104
851.189000	0.269348
851.671100	0.560364
852.153300	1.341309
852.635400	2.385010
853.117500	3.629944
853.599600	4.763855
854.081700	5.487000
854.563800	5.814514
855.046000	5.824463
855.528100	5.506348
856.010200	4.446289
856.492300	2.346680
856.974400	0.671143
857.456500	1.654236
857.938700	5.124756
858.420800	5.860840
858.902900	1.970459
859.385000	0.058105
859.867100	3.090088
860.349200	6.626099
860.831400	7.340698
861.313500	5.952271
861.795600	4.619507
862.277700	3.678955
862.759800	2.548218
863.241900	0.220825
863.724100	1.476440
864.206200	0.851868
864.688300	1.102051
865.170400	2.806763
865.652500	3.805054
866.134600	4.233582
866.616800	3.758667
867.098900	3.061035
867.581000	3.753235
868.063100	5.426331
868.545200	6.185974
869.027300	5.662476
869.509500	4.665771
869.991600	3.689148
870.473700	2.874146
870.955800	2.622070
871.437900	3.048218
871.920000	4.023743
872.402200	6.038452
872.884300	7.489441
873.366400	7.541870
873.848500	6.765869
874.330600	5.876892
874.812700	4.867126
875.294900	3.892334
875.777000	2.415527
876.259100	1.689636
876.741200	2.908325
877.223300	4.377441
877.705400	4.588867
878.187600	3.746338
878.669700	2.625061
879.151800	1.346130
879.633900	0.809753
880.116000	2.789490
880.598100	5.287659
881.080300	5.017334
881.562400	2.668030
882.044500	1.055359
882.526600	1.150452
883.008700	2.107605
883.490800	3.171570
883.973000	4.274536
884.455100	5.031738
884.937200	5.397217
885.419300	6.311890
885.901400	8.207947
886.383500	9.674011
886.865700	9.803406
887.347800	8.911499
887.829900	7.774048
888.312000	6.347229
888.794100	4.782654
889.276200	2.354492
889.758400	0.679199
890.240500	0.833984
890.722600	1.575928
891.204700	1.571167
891.686800	0.827820
892.168900	0.319214
892.651100	0.312744
893.133200	0.673950
893.615300	1.732910
894.097400	2.835571
894.579500	3.138428
895.061600	2.860657
895.543800	2.835388
896.025900	3.401917
896.508000	4.039978
896.990100	4.323364
897.472200	4.218933
897.954300	3.191589
898.436500	1.540527
898.918600	1.236755
899.400700	2.841797
899.882800	4.814941
900.364900	5.846008
900.847000	6.115417
901.329200	6.252625
901.811300	6.233276
902.293400	6.248962
902.775500	6.430786
903.257600	6.356384
903.739700	5.697021
904.221900	4.767883
904.704000	4.050476
905.186100	3.572205
905.668200	3.188721
906.150300	2.578552
906.632400	2.505493
907.114600	3.751770
907.596700	5.104004
908.078800	5.229858
908.560900	4.638123
909.043000	5.216248
909.525100	8.103882
910.007300	9.940430
910.489400	7.574585
910.971500	4.219666
911.453600	3.130615
911.935700	3.591187
912.417800	3.842102
912.900000	3.386658
913.382100	2.587463
913.864200	1.617004
914.346300	0.689331
914.828400	0.067383
915.310500	0.168640
915.792700	0.701843
916.274800	2.707520
916.756900	3.707397
917.239000	2.387085
917.721100	0.169556
918.203200	0.662476
918.685400	0.069153
919.167500	1.076965
919.649600	3.167847
920.131700	4.571289
920.613800	4.631653
921.095900	4.240356
921.578100	4.165710
922.060200	4.352417
922.542300	3.954895
923.024400	2.387512
923.506500	1.289856
923.988600	1.146667
924.470800	0.912537
924.952900	0.011292
925.435000	1.094971
925.917100	1.915222
926.399200	2.359619
926.881300	2.383850
927.363500	1.944397
927.845600	1.106384
928.327700	0.503662
928.809800	2.208069
929.291900	3.393372
929.774000	3.983032
930.256200	3.905212
930.738300	3.183960
931.220400	2.490234
931.702500	2.458374
932.184600	2.815552
932.666700	3.319946
933.148900	3.824463
933.631000	3.753601
934.113200	3.007202
934.595300	2.033264
935.077400	1.080200
935.559500	0.299011
936.041600	0.638794
936.523700	2.133606
937.005900	3.240601
937.488000	3.800842
937.970100	4.588074
938.452200	6.150452
938.934300	7.432373
939.416400	6.969482
939.898600	4.912170
940.380700	4.007385
940.862800	5.106934
941.344900	5.756653
941.827000	5.339661
942.309100	4.767029
942.791300	4.669128
943.273400	4.733337
943.755500	4.378784
944.237600	3.493164
944.719700	2.932068
945.201800	3.005615
945.684000	3.213501
946.166100	3.710022
946.648200	3.982056
947.130300	3.256165
947.612400	1.896790
948.094500	1.107239
948.576700	1.383972
949.058800	1.755310
949.540900	1.535217
950.023000	1.181702
950.505100	1.066772
950.987200	1.198364
951.469400	1.633789
951.951500	2.318848
952.433600	2.934387
952.915700	3.272400
953.397800	3.397888
953.879900	3.350098
954.362100	3.176575
954.844200	2.332642
955.326300	1.190857
955.808400	3.102173
956.290500	9.396851
956.772600	15.436890
957.254800	15.756470
957.736900	11.589780
958.219000	8.011841
958.701100	5.012878
959.183200	2.895081
959.665300	1.650146
960.147500	1.549316
960.629600	2.978271
961.111700	5.168762
961.593800	6.556824
962.075900	6.882385
962.558000	9.250183
963.040200	16.217530
963.522300	19.691470
964.004400	16.000790
964.486500	10.631900
964.968600	7.333069
965.450700	5.672180
965.932900	4.223083
966.415000	2.735413
966.897100	2.138611
967.379200	3.169922
967.861300	4.282837
968.343400	5.007019
968.825600	5.476929
969.307700	5.684875
969.789800	5.759949
970.271900	6.223816
970.754000	7.654480
971.236100	8.530396
971.718300	7.818237
972.200400	6.703796
972.682500	6.177917
973.164600	5.860168
973.646700	4.893250
974.128800	3.223389
974.611000	1.911865
975.093100	1.473938
975.575200	1.783447
976.057300	3.513672
976.539400	5.508118
977.021500	5.668091
977.503700	4.310852
977.985800	2.978882
978.467900	2.250977
978.950000	1.904968
979.432100	1.923706
979.914200	1.984619
980.396400	1.130493
980.878500	0.250916
981.360600	0.697571
981.842700	0.027222
982.324800	1.285278
982.806900	3.003357
983.289100	4.571228
983.771200	5.254272
984.253300	5.152222
984.735400	4.949036
985.217500	4.690613
985.699600	3.591248
986.181800	1.325562
986.663900	0.585876
987.146000	0.950195
987.628100	0.366272
988.110200	0.208435
988.592300	0.600647
989.074500	0.487915
989.556600	0.273071
990.038700	1.212891
990.520800	2.624084
991.002900	3.383545
991.485000	2.060913
991.967200	0.611755
992.449300	1.742859
992.931400	0.479492
993.413500	0.264648
993.895600	0.080566
994.377700	0.109009
994.859900	0.535767
995.342000	1.740356
995.824100	4.140442
996.306200	7.230408
996.788300	8.188110
997.270400	5.495422
997.752600	2.984375
998.234700	0.685852
998.716800	0.785767
999.198900	0.844116
999.681000	0.095337
1000.163000	0.921204
1000.645000	2.065918
1001.127000	2.930481
1001.609000	3.207336
1002.092000	3.489441
1002.574000	4.293945
1003.056000	4.932312
1003.538000	4.621582
1004.020000	3.860840
1004.502000	3.581421
1004.984000	3.905701
1005.466000	4.083069
1005.949000	3.454773
1006.431000	2.937439
1006.913000	3.602112
1007.395000	4.449463
1007.877000	4.208984
1008.359000	3.145386
1008.841000	1.923523
1009.323000	0.845154
1009.805000	0.615112
1010.288000	2.677551
1010.770000	4.806030
1011.252000	3.624817
1011.734000	0.868774
1012.216000	0.303528
1012.698000	0.143005
1013.180000	0.882263
1013.662000	1.363220
1014.145000	1.455566
1014.627000	0.570374
1015.109000	0.396851
1015.591000	0.837036
1016.073000	3.503662
1016.555000	4.877869
1017.037000	4.794678
1017.519000	5.288635
1018.001000	7.403381
1018.484000	9.490906
1018.966000	9.116943
1019.448000	7.054749
1019.930000	5.946350
1020.412000	5.785278
1020.894000	6.911621
1021.376000	9.336487
1021.858000	10.680110
1022.341000	9.460205
1022.823000	7.225403
1023.305000	6.231812
1023.787000	6.471680
1024.269000	8.326050
1024.751000	11.964720
1025.233000	13.717960
1025.715000	12.563050
1026.198000	11.773560
1026.680000	13.595760
1027.162000	16.500850
1027.644000	17.286320
1028.126000	15.852600
1028.608000	17.279790
1029.090000	22.244450
1029.572000	26.802060
1030.054000	30.065250
1030.536000	33.086670
1031.019000	37.141110
1031.501000	40.632200
1031.983000	39.717650
1032.465000	33.526490
1032.947000	29.753540
1033.429000	28.902950
1033.911000	29.007630
1034.393000	28.891540
1034.876000	30.905640
1035.358000	36.543820
1035.840000	45.556090
1036.322000	56.682920
1036.804000	68.283260
1037.286000	90.003660
1037.768000	120.547900
1038.250000	163.830500
1038.733000	225.880600
1039.215000	295.041600
1039.697000	374.541900
1040.179000	451.748000
1040.661000	492.148400
1041.143000	486.053300
1041.625000	479.562500
1042.107000	460.016300
1042.589000	457.603600
1043.072000	479.949500
1043.554000	519.488500
1044.036000	572.883200
1044.518000	639.001900
1045.000000	715.688500
1045.482000	803.134300
1045.964000	899.887500
1046.446000	1002.922000
1046.928000	1118.842000
1047.411000	1229.558000
1047.893000	1371.864000
1048.375000	1515.849000
1048.857000	1725.766000
1049.339000	2182.226000
1049.821000	2970.323000
1050.303000	3651.353000
1050.785000	4422.649000
1051.268000	4729.724000
1051.750000	4169.213000
1052.232000	3282.524000
1052.714000	2325.841000
1053.196000	1422.204000
1053.678000	781.221200
1054.160000	455.995000
1054.642000	245.867900
1055.125000	158.201800
1055.607000	107.624900
1056.089000	78.444760
1056.571000	60.378050
1057.053000	48.885800
1057.535000	41.742980
1058.017000	35.983760
1058.499000	31.200930
1058.981000	27.394100
1059.464000	24.505250
1059.946000	22.857850
1060.428000	23.699770
1060.910000	24.617250
1061.392000	23.489690
1061.874000	20.993710
1062.356000	18.821170
1062.838000	17.408940
1063.320000	15.694640
1063.803000	12.210210
1064.285000	9.544312
1064.767000	9.408752
1065.249000	10.022950
1065.731000	10.221920
1066.213000	9.874268
1066.695000	8.788330
1067.177000	6.952881
1067.660000	5.581299
1068.142000	5.970154
1068.624000	5.885071
1069.106000	3.212646
1069.588000	0.640503
1070.070000	0.579834
1070.552000	2.247986
1071.034000	4.198975
1071.516000	6.056824
1071.999000	7.171143
1072.481000	6.719055
1072.963000	6.165833
1073.445000	6.446167
1073.927000	6.703247
1074.409000	6.205750
1074.891000	5.197021
1075.373000	3.919983
1075.855000	2.539368
1076.338000	1.841858
1076.820000	2.697205
1077.302000	3.371582
1077.784000	2.711487
1078.266000	1.872253
1078.748000	1.927551
1079.230000	2.320435
1079.712000	2.028564
1080.195000	1.039917
1080.677000	0.276245
1081.159000	0.021423
1081.641000	0.198792
1082.123000	1.005920
1082.605000	1.994446
1083.087000	3.096558
1083.569000	4.012512
1084.052000	4.220154
1084.534000	3.842041
1085.016000	3.702759
1085.498000	4.181458
1085.980000	4.614441
1086.462000	5.002808
1086.944000	4.922607
1087.426000	3.337158
1087.908000	1.658813
1088.391000	1.345520
1088.873000	2.524658
1089.355000	5.388000
1089.837000	10.917180
1090.319000	14.038760
1090.801000	10.734680
1091.283000	6.855042
1091.765000	5.556335
1092.248000	5.401733
1092.730000	4.984436
1093.212000	4.273193
1093.694000	3.461121
1094.176000	2.442749
1094.658000	2.557251
1095.140000	5.869507
1095.622000	8.384460
1096.104000	7.510193
1096.587000	5.768311
1097.069000	5.529480
1097.551000	6.115479
1098.033000	5.552307
1098.515000	3.186096
1098.997000	2.045776
1099.479000	5.054626
1099.961000	6.818298
1100.443000	3.969849
1100.926000	0.799011
1101.408000	0.134460
1101.890000	1.348816
1102.372000	3.768738
1102.854000	7.122437
1103.336000	9.041870
1103.818000	8.059937
1104.300000	7.007080
1104.783000	7.104309
1105.265000	6.582336
1105.747000	3.261414
1106.229000	0.425293
1106.711000	0.920349
1107.193000	1.406799
1107.675000	2.320923
1108.157000	0.729675
1108.640000	1.297729
1109.122000	4.283203
1109.604000	8.921387
1110.086000	9.216797
1110.568000	7.834534
1111.050000	7.069519
1111.532000	6.850647
1112.014000	6.671875
1112.496000	7.013733
1112.979000	6.014709
1113.461000	1.861755
1113.943000	1.245850
1114.425000	2.029724
1114.907000	1.720398
1115.389000	0.463501
1115.871000	1.033875
1116.353000	0.942017
1116.835000	1.229675
1117.318000	2.056030
1117.800000	1.020752
1118.282000	0.509094
1118.764000	3.506470
1119.246000	5.098755
1119.728000	2.615662
1120.210000	1.141174
1120.692000	1.676453
1121.175000	0.924622
1121.657000	2.226807
1122.139000	1.386353
1122.621000	1.752380
1123.103000	4.374146
1123.585000	6.273865
1124.067000	6.006226
1124.549000	4.799622
1125.031000	3.790649
1125.514000	3.118347
1125.996000	3.582825
1126.478000	5.460754
1126.960000	6.985352
1127.442000	8.148560
1127.924000	8.643066
1128.406000	8.281433
1128.888000	7.591431
1129.370000	6.958984
1129.853000	6.362000
1130.335000	5.680359
1130.817000	4.913513
1131.299000	4.801025
1131.781000	5.386658
1132.263000	5.692017
1132.745000	5.516724
1133.227000	5.243896
1133.710000	5.108215
1134.192000	4.909363
1134.674000	4.321411
1135.156000	3.471436
1135.638000	2.789612
1136.120000	2.308777
1136.602000	2.328064
1137.084000	2.846252
1137.567000	3.469360
1138.049000	4.037842
1138.531000	4.671326
1139.013000	5.564209
1139.495000	6.390381
1139.977000	6.175049
1140.459000	5.463379
1140.941000	6.007690
1141.423000	7.545654
1141.906000	8.877197
1142.388000	9.615723
1142.870000	9.524841
1143.352000	8.345764
1143.834000	7.034180
1144.316000	7.028015
1144.798000	7.378296
1145.280000	6.282471
1145.762000	4.569458
1146.245000	4.241821
1146.727000	5.085327
1147.209000	5.122070
1147.691000	3.599976
1148.173000	2.305664
1148.655000	2.953003
1149.137000	4.007019
1149.619000	4.281128
1150.102000	4.097107
1150.584000	3.526062
1151.066000	2.909241
1151.548000	2.894165
1152.030000	3.591980
1152.512000	4.261841
1152.994000	4.828613
1153.476000	5.004700
1153.958000	4.846802
1154.441000	4.030640
1154.923000	1.011536
1155.405000	1.747437
1155.887000	0.700439
1156.369000	3.180481
1156.851000	5.077942
1157.333000	3.384888
1157.815000	2.517761
1158.297000	4.944153
1158.780000	6.251343
1159.262000	3.526428
1159.744000	0.764221
1160.226000	1.376831
1160.708000	3.722717
1161.190000	4.416504
1161.672000	3.235718
1162.154000	3.250244
1162.637000	5.456848
1163.119000	6.996643
1163.601000	7.646667
1164.083000	7.551025
1164.565000	6.426575
1165.047000	5.245789
1165.529000	4.872192
1166.011000	5.066650
1166.494000	5.201233
1166.976000	5.485352
1167.458000	5.135376
1167.940000	3.718811
1168.422000	4.129944
1168.904000	7.518311
1169.386000	10.393010
1169.868000	10.333370
1170.350000	8.804932
1170.833000	8.129089
1171.315000	8.181091
1171.797000	8.326660
1172.279000	8.567993
1172.761000	8.317322
1173.243000	7.627686
1173.725000	7.480835
1174.207000	8.206848
1174.689000	8.850708
1175.172000	8.644104
1175.654000	8.121765
1176.136000	8.063171
1176.618000	8.164246
1177.100000	7.768005
1177.582000	7.125244
1178.064000	6.961975
1178.546000	7.466919
1179.029000	7.844604
1179.511000	7.339417
1179.993000	6.581421
1180.475000	6.302185
1180.957000	6.282837
1181.439000	6.134216
1181.921000	6.192200
1182.403000	7.454102
1182.885000	9.126099
1183.368000	9.266479
1183.850000	7.618286
1184.332000	6.182373
1184.814000	5.806274
1185.296000	5.736450
1185.778000	5.908691
1186.260000	6.030762
1186.742000	5.801636
1187.225000	5.559998
1187.707000	5.805664
1188.189000	6.379822
1188.671000	6.608459
1189.153000	6.333008
1189.635000	6.096985
1190.117000	6.139099
1190.599000	5.907532
1191.082000	5.054077
1191.564000	4.255981
1192.046000	3.682800
1192.528000	3.622314
1193.010000	4.636475
1193.492000	6.550903
1193.974000	8.021118
1194.456000	9.263733
1194.938000	8.677979
1195.421000	5.783875
1195.903000	3.304565
1196.385000	1.987732
1196.867000	1.797424
1197.349000	2.807190
1197.831000	4.497437
1198.313000	6.022888
1198.795000	7.373962
1199.277000	8.569275
1199.760000	9.548645
1200.242000	9.958496
1200.724000	9.790161
1201.206000	9.123108
1201.688000	8.057739
1202.170000	7.399414
1202.652000	8.043518
1203.134000	8.820190
1203.617000	8.221680
1204.099000	6.849976
1204.581000	4.852051
1205.063000	3.099121
1205.545000	3.305054
1206.027000	5.261414
1206.509000	7.657227
1206.991000	10.175290
1207.474000	11.054140
1207.956000	8.358215
1208.438000	5.094788
1208.920000	1.679749
1209.402000	0.547668
1209.884000	0.363525
1210.366000	2.638794
1210.848000	3.770630
1211.330000	3.579468
1211.813000	2.601990
1212.295000	0.291626
1212.777000	1.559631
1213.259000	0.142883
1213.741000	1.165100
1214.223000	1.626831
1214.705000	1.675842
1215.187000	1.324707
1215.669000	1.250427
1216.152000	3.063599
1216.634000	6.509766
1217.116000	6.881226
1217.598000	3.816040
1218.080000	2.188293
1218.562000	2.540710
1219.044000	2.866821
1219.526000	2.440918
1220.009000	1.980164
1220.491000	2.037109
1220.973000	2.511230
1221.455000	3.617798
1221.937000	4.845398
1222.419000	4.690674
1222.901000	3.586243
1223.383000	2.574646
1223.865000	1.857605
1224.348000	1.303284
1224.830000	0.911621
1225.312000	1.347839
1225.794000	3.742981
1226.276000	5.817627
1226.758000	5.002136
1227.240000	3.933777
1227.722000	5.420898
1228.204000	7.775818
1228.687000	8.700562
1229.169000	8.281372
1229.651000	7.705200
1230.133000	7.194336
1230.615000	6.475952
1231.097000	4.917542
1231.579000	3.949036
1232.061000	4.301758
1232.544000	4.762695
1233.026000	5.239990
1233.508000	4.981445
1233.990000	2.643066
1234.472000	0.935181
1234.954000	1.933716
1235.436000	0.249634
1235.918000	0.512024
1236.401000	1.461487
1236.883000	1.644104
1237.365000	0.886902
1237.847000	2.655029
1238.329000	1.763550
1238.811000	0.518494
1239.293000	1.827576
1239.775000	4.132019
1240.257000	3.912109
1240.740000	2.280396
1241.222000	1.735657
1241.704000	2.107788
1242.186000	2.705627
1242.668000	3.178650
1243.150000	2.725647
1243.632000	0.876404
1244.114000	0.625183
1244.596000	0.743286
1245.079000	0.010925
1245.561000	2.177917
1246.043000	4.216919
1246.525000	4.813599
1247.007000	4.423035
1247.489000	3.321899
1247.971000	1.854614
1248.453000	1.939453
1248.936000	4.890625
1249.418000	6.392761
1249.900000	5.324097
1250.382000	4.237732
1250.864000	4.467224
1251.346000	4.496460
1251.828000	3.255310
1252.310000	1.970886
1252.792000	2.297058
1253.275000	3.791077
1253.757000	4.760498
1254.239000	5.212585
1254.721000	5.419678
1255.203000	5.360962
1255.685000	4.491089
1256.167000	2.872009
1256.649000	2.130859
1257.131000	3.152710
1257.614000	4.640442
1258.096000	5.676758
1258.578000	6.094910
1259.060000	5.286011
1259.542000	4.093018
1260.024000	3.145020
1260.506000	2.825500
1260.988000	4.258240
1261.471000	6.331665
1261.953000	7.160400
1262.435000	4.576538
1262.917000	3.013428
1263.399000	2.959961
1263.881000	3.192871
1264.363000	3.540771
1264.845000	3.812012
1265.328000	4.007446
1265.810000	3.997009
1266.292000	3.192383
1266.774000	2.498718
1267.256000	2.598389
1267.738000	3.482544
1268.220000	4.007996
1268.702000	4.208679
1269.184000	4.480347
1269.667000	4.904114
1270.149000	5.683044
1270.631000	6.915588
1271.113000	7.567810
1271.595000	6.528259
1272.077000	4.689209
1272.559000	2.978821
1273.041000	1.653687
1273.523000	1.277161
1274.006000	1.456543
1274.488000	1.672852
1274.970000	1.750793
1275.452000	1.175049
1275.934000	0.210266
1276.416000	0.347595
1276.898000	3.149963
1277.380000	5.567505
1277.863000	4.540894
1278.345000	3.469849
1278.827000	4.368347
1279.309000	5.475342
1279.791000	5.299011
1280.273000	4.353760
1280.755000	3.780457
1281.237000	3.574097
1281.719000	3.056091
1282.202000	2.008301
1282.684000	1.673645
1283.166000	2.015625
1283.648000	2.616943
1284.130000	3.314880
1284.612000	3.762268
1285.094000	3.744141
1285.576000	3.262451
1286.059000	1.774414
1286.541000	0.259583
1287.023000	0.017334
1287.505000	0.000000

	
	
	
