PE IR       RAMAN       SPECTRUM    ASCII       PEDS        1.60        	
-1	
RIBOSE.ASC	
00/04/27	
22:52.0	
00/04/27	
22:52.0	
	
"Ribose (4 cm-1, 256, medium, 400 mW)"	
200	
256	
	
	
	
	
	
	
	
	
	
"2000,4.07    "	
INGAAS	
RAM_DPY2	
QUARTZ	
	
0.1	
1	
4	
MEDIUM	
SINGLE	
RAMAN	
MAGN 0	
	
DOUBLE	
	
COMBINED	
1	
0	
0	
	
	
1	
SINGLE BEAM	
	
	
1	
0	
TRUE	
39836	
1	
0	
NONE	
NONE	
15600	
21.2	
8.170999	
39835	
TRUE	
1 0 0 0 0 0 0 0 	
	
15798.01	
9394.69	
400	
	
	
	
	
#HDR	
-1	
-1	
#GR	
CM-1	
INT	
0.001	
0	
3600	
-1	
3401	
8	
34.142947	
0.009059	
#DATA	
3600	0.01564
3599	0.015926
3598	0.013828
3597	0.01254
3596	0.010609
3595	0.009059
3594	0.011849
3593	0.016474
3592	0.016903
3591	0.015377
3590	0.018024
3589	0.021862
3588	0.0211
3587	0.020837
3586	0.027799
3585	0.035405
3584	0.036096
3583	0.036859
3582	0.043439
3581	0.044894
3580	0.034856
3579	0.027751
3578	0.032782
3577	0.036644
3576	0.031661
3575	0.031995
3574	0.042939
3573	0.047826
3572	0.0427
3571	0.045347
3570	0.056815
3569	0.055456
3568	0.038886
3567	0.028276
3566	0.027608
3565	0.024366
3564	0.026941
3563	0.051355
3562	0.078511
3561	0.076794
3560	0.055623
3559	0.046467
3558	0.049018
3557	0.044775
3556	0.040602
3555	0.050926
3554	0.0633
3553	0.062894
3552	0.062584
3551	0.073981
3550	0.080776
3549	0.071406
3548	0.063395
3547	0.07081
3546	0.082325
3545	0.090193
3544	0.104165
3543	0.122976
3542	0.128746
3541	0.118851
3540	0.111269
3539	0.112342
3538	0.109934
3537	0.099444
3536	0.091719
3535	0.093793
3534	0.101089
3533	0.109314
3532	0.120496
3531	0.135397
3530	0.145459
3529	0.140261
3528	0.125622
3527	0.121951
3526	0.134038
3525	0.141763
3524	0.135135
3523	0.133609
3522	0.149035
3521	0.163626
3520	0.166082
3519	0.172066
3518	0.18773
3517	0.195693
3516	0.194525
3515	0.205469
3514	0.227856
3513	0.238204
3512	0.238037
3511	0.249147
3510	0.264525
3509	0.262141
3508	0.256943
3507	0.277996
3506	0.309777
3505	0.318408
3504	0.314331
3503	0.327563
3502	0.348639
3501	0.352764
3500	0.351023
3499	0.364279
3498	0.381422
3497	0.386762
3496	0.39277
3495	0.40977
3494	0.420737
3493	0.415253
3492	0.411248
3491	0.421833
3490	0.433993
3489	0.436758
3488	0.440359
3487	0.45588
3486	0.478386
3485	0.498652
3484	0.515842
3483	0.533366
3482	0.551819
3481	0.568866
3480	0.581693
3479	0.590181
3478	0.597405
3477	0.607585
3476	0.622987
3475	0.645065
3474	0.673127
3473	0.705242
3472	0.743079
3471	0.789833
3470	0.836777
3469	0.868964
3468	0.892877
3467	0.933647
3466	0.993013
3465	1.044726
3464	1.084184
3463	1.137304
3462	1.206207
3461	1.259636
3460	1.290559
3459	1.326012
3458	1.371669
3457	1.406693
3456	1.433992
3455	1.473045
3454	1.509118
3453	1.516938
3452	1.518154
3451	1.547884
3450	1.588368
3449	1.601266
3448	1.596856
3447	1.609063
3446	1.633596
3445	1.646995
3444	1.653838
3443	1.669025
3442	1.685237
3441	1.694822
3440	1.711702
3439	1.744699
3438	1.779627
3437	1.807665
3436	1.839256
3435	1.879119
3434	1.916432
3433	1.947307
3432	1.98121
3431	2.019309
3430	2.048635
3429	2.061891
3428	2.068209
3427	2.079463
3426	2.094674
3425	2.102446
3424	2.098488
3423	2.094292
3422	2.10092
3421	2.112674
3420	2.121758
3419	2.132225
3418	2.142572
3417	2.136945
3416	2.117609
3415	2.113604
3414	2.131938
3413	2.139925
3412	2.122759
3411	2.111005
3410	2.124714
3409	2.14219
3408	2.147507
3407	2.155113
3406	2.16968
3405	2.175545
3404	2.176213
3403	2.191925
3402	2.215027
3401	2.220511
3400	2.216529
3399	2.230334
3398	2.256321
3397	2.270531
3396	2.281141
3395	2.310752
3394	2.350902
3393	2.380895
3392	2.408075
3391	2.445483
3390	2.480363
3389	2.500438
3388	2.521896
3387	2.557611
3386	2.592158
3385	2.614665
3384	2.642893
3383	2.691936
3382	2.750229
3381	2.801299
3380	2.84326
3379	2.877449
3378	2.901387
3377	2.91953
3376	2.943348
3375	2.975058
3374	3.001451
3373	3.00858
3372	3.000497
3371	2.997279
3370	3.011488
3369	3.032064
3368	3.043556
3367	3.047323
3366	3.050184
3365	3.043866
3364	3.022718
3363	2.999806
3362	2.986097
3361	2.970743
3360	2.947187
3359	2.926683
3358	2.908396
3357	2.870273
3356	2.811622
3355	2.759504
3354	2.719449
3353	2.66695
3352	2.600097
3351	2.546024
3350	2.50771
3349	2.459716
3348	2.400398
3347	2.351427
3346	2.308273
3345	2.248144
3344	2.17874
3343	2.122712
3342	2.070283
3341	2.001571
3340	1.932501
3339	1.887631
3338	1.853513
3337	1.804041
3336	1.744627
3335	1.692438
3334	1.643347
3333	1.590061
3332	1.546287
3331	1.52409
3330	1.511192
3329	1.487851
3328	1.449823
3327	1.403212
3326	1.354789
3325	1.312375
3324	1.283359
3323	1.266694
3322	1.25339
3321	1.235795
3320	1.214718
3319	1.197099
3318	1.186418
3317	1.178216
3316	1.168441
3315	1.160407
3314	1.152896
3313	1.133513
3312	1.10042
3311	1.074886
3310	1.070785
3309	1.072144
3308	1.062011
3307	1.048731
3306	1.038908
3305	1.017642
3304	0.981163
3303	0.953578
3302	0.947642
3301	0.944542
3300	0.931501
3299	0.920033
3298	0.914025
3297	0.9027
3296	0.892138
3295	0.899505
3294	0.914239
3293	0.910329
3292	0.892734
3291	0.885415
3290	0.883984
3289	0.868082
3288	0.847482
3287	0.846171
3286	0.857257
3285	0.857806
3284	0.849986
3283	0.848221
3282	0.848674
3281	0.844478
3280	0.845813
3279	0.857853
3278	0.865697
3277	0.86255
3276	0.863671
3275	0.874519
3274	0.876712
3273	0.859332
3272	0.838208
3271	0.832295
3270	0.841927
3269	0.858163
3268	0.875735
3267	0.891685
3266	0.900673
3265	0.899028
3264	0.891923
3263	0.892281
3262	0.905513
3261	0.921106
3260	0.928711
3259	0.935053
3258	0.948953
3257	0.963068
3256	0.970482
3255	0.981116
3254	0.998711
3253	1.005387
3252	0.992846
3251	0.980424
3250	0.980305
3249	0.980639
3248	0.982546
3247	1.007461
3246	1.049971
3245	1.073193
3244	1.06759
3243	1.063251
3242	1.073908
3241	1.082205
3240	1.085233
3239	1.100993
3238	1.126575
3237	1.140046
3236	1.142621
3235	1.151633
3234	1.164436
3233	1.171565
3232	1.187038
3231	1.221323
3230	1.250314
3229	1.251292
3228	1.242446
3227	1.251435
3226	1.272249
3225	1.284861
3224	1.290202
3223	1.299023
3222	1.30825
3221	1.309871
3220	1.307773
3219	1.312327
3218	1.326346
3217	1.343941
3216	1.357722
3215	1.364064
3214	1.362109
3213	1.350522
3212	1.331138
3211	1.313924
3210	1.310849
3209	1.321792
3208	1.335787
3207	1.344752
3206	1.347637
3205	1.344919
3204	1.340341
3203	1.340508
3202	1.341867
3201	1.330137
3200	1.306581
3199	1.29342
3198	1.297068
3197	1.294612
3196	1.276206
3195	1.263833
3194	1.266956
3193	1.26388
3192	1.246404
3191	1.234054
3190	1.227855
3189	1.203179
3188	1.160311
3187	1.129794
3186	1.119875
3185	1.109075
3184	1.092171
3183	1.08602
3182	1.090216
3181	1.087498
3180	1.076292
3179	1.066327
3178	1.052808
3177	1.028132
3176	1.003837
3175	0.992941
3174	0.985908
3173	0.969958
3172	0.952625
3171	0.944995
3170	0.940847
3169	0.929164
3168	0.910282
3167	0.88675
3166	0.85783
3165	0.831103
3164	0.819873
3163	0.821661
3162	0.816345
3161	0.791931
3160	0.760221
3159	0.742316
3158	0.744128
3157	0.751638
3156	0.749897
3155	0.74079
3154	0.733447
3153	0.726032
3152	0.712442
3151	0.698423
3150	0.690126
3149	0.679564
3148	0.661706
3147	0.649452
3146	0.648522
3145	0.641727
3144	0.621795
3143	0.608801
3142	0.611257
3141	0.605916
3140	0.58043
3139	0.556921
3138	0.552654
3137	0.556278
3136	0.558996
3135	0.568318
3134	0.5795
3133	0.574016
3132	0.554275
3131	0.541567
3130	0.538921
3129	0.53308
3128	0.526356
3127	0.528597
3126	0.528526
3125	0.511336
3124	0.491714
3123	0.49262
3122	0.506711
3121	0.510787
3120	0.501441
3119	0.48871
3118	0.473189
3117	0.454545
3116	0.442147
3115	0.438523
3114	0.431656
3113	0.41716
3112	0.40915
3111	0.417923
3110	0.43354
3109	0.439691
3108	0.432348
3107	0.41933
3106	0.408434
3105	0.400471
3104	0.393915
3103	0.389957
3102	0.388669
3101	0.383973
3100	0.374507
3099	0.372362
3098	0.384855
3097	0.396275
3096	0.389552
3095	0.372362
3094	0.359535
3093	0.347423
3092	0.331568
3091	0.325131
3090	0.334548
3089	0.342702
3088	0.341415
3087	0.347805
3086	0.367474
3085	0.378894
3084	0.373387
3083	0.370812
3082	0.3798
3081	0.385046
3080	0.383496
3079	0.388574
3078	0.393652
3077	0.37682
3076	0.344419
3075	0.326251
3074	0.329375
3073	0.336885
3072	0.344061
3071	0.357794
3070	0.37043
3069	0.370526
3068	0.366759
3067	0.371932
3066	0.378203
3065	0.372076
3064	0.359416
3063	0.355052
3062	0.361371
3061	0.371766
3060	0.382375
3059	0.389885
3058	0.388598
3057	0.377178
3056	0.363707
3055	0.35932
3054	0.367188
3053	0.3798
3052	0.388932
3051	0.395989
3050	0.40512
3049	0.410795
3048	0.405836
3047	0.397825
3046	0.399136
3045	0.40543
3044	0.405502
3043	0.403809
3042	0.411128
3041	0.423884
3040	0.435757
3039	0.453305
3038	0.474882
3037	0.480127
3036	0.463271
3035	0.45073
3034	0.459742
3033	0.472831
3032	0.473785
3031	0.474286
3030	0.483059
3029	0.488495
3028	0.487804
3027	0.497484
3026	0.521755
3025	0.545096
3024	0.563216
3023	0.587964
3022	0.621461
3021	0.654625
3020	0.694203
3019	0.754833
3018	0.83599
3017	0.924539
3016	1.02415
3015	1.149058
3014	1.307821
3013	1.505994
3012	1.753091
3011	2.058362
3010	2.413797
3009	2.815127
3008	3.268265
3007	3.781843
3006	4.338693
3005	4.896974
3004	5.41749
3003	5.889987
3002	6.319499
3001	6.675887
3000	6.874179
2999	6.811428
2998	6.451106
2997	5.863904
2996	5.21171
2995	4.663276
2994	4.323005
2993	4.201126
2992	4.265451
2991	4.491376
2990	4.889869
2989	5.471706
2988	6.236314
2987	7.146573
2986	8.112049
2985	8.981275
2984	9.581303
2983	9.778642
2982	9.499192
2981	8.77974
2980	7.785105
2979	6.767249
2978	5.898594
2977	5.209589
2976	4.648828
2975	4.191827
2974	3.848004
2973	3.642177
2972	3.607487
2971	3.769326
2970	4.109525
2969	4.570531
2968	5.100512
2967	5.674743
2966	6.293201
2965	6.97689
2964	7.771134
2963	8.69317
2962	9.69088
2961	10.626268
2960	11.336088
2959	11.681866
2958	11.604833
2957	11.136794
2956	10.396027
2955	9.549713
2954	8.753538
2953	8.109831
2952	7.652521
2951	7.397317
2950	7.357358
2949	7.541227
2948	7.913398
2947	8.399033
2946	8.889102
2945	9.265804
2944	9.430694
2943	9.34627
2942	9.041047
2941	8.592724
2940	8.101868
2939	7.671284
2938	7.367086
2937	7.198119
2936	7.13756
2935	7.16722
2934	7.284522
2933	7.486534
2932	7.770299
2931	8.132576
2930	8.559942
2929	8.999514
2928	9.384226
2927	9.651803
2926	9.772038
2925	9.760522
2924	9.702229
2923	9.719204
2922	9.897923
2921	10.239958
2920	10.678148
2919	11.094832
2918	11.336565
2917	11.260986
2916	10.815095
2915	10.062861
2914	9.137868
2913	8.177185
2912	7.283139
2911	6.511831
2910	5.873155
2909	5.348944
2908	4.913735
2907	4.550123
2906	4.25024
2905	4.016065
2904	3.846216
2903	3.728604
2902	3.64294
2901	3.57902
2900	3.548264
2899	3.565716
2898	3.637313
2897	3.740859
2896	3.850817
2895	3.946042
2894	4.02038
2893	4.06413
2892	4.07288
2891	4.059433
2890	4.049897
2889	4.055762
2888	4.074144
2887	4.108929
2886	4.172921
2885	4.264616
2884	4.369449
2883	4.477906
2882	4.582953
2881	4.66392
2880	4.704403
2879	4.711604
2878	4.702877
2877	4.678964
2876	4.636931
2875	4.584193
2874	4.525089
2873	4.444813
2872	4.332685
2871	4.199862
2870	4.064965
2869	3.93083
2868	3.791832
2867	3.645634
2866	3.493571
2865	3.335833
2864	3.175568
2863	3.017067
2862	2.861595
2861	2.70636
2860	2.551317
2859	2.404308
2858	2.276372
2857	2.169466
2856	2.073884
2855	1.980638
2854	1.89414
2853	1.821398
2852	1.757526
2851	1.689648
2850	1.616454
2849	1.54922
2848	1.498436
2847	1.45967
2846	1.419949
2845	1.3695
2844	1.313471
2843	1.266932
2842	1.240491
2841	1.226305
2840	1.207804
2839	1.178646
2838	1.147699
2837	1.122999
2836	1.103901
2835	1.087975
2834	1.074934
2833	1.061439
2832	1.04444
2831	1.029658
2830	1.024007
2829	1.022696
2828	1.016449
2827	1.008152
2826	1.006889
2825	1.011276
2824	1.010489
2823	0.998902
2822	0.979351
2821	0.957918
2820	0.941705
2819	0.937652
2818	0.945162
2817	0.953674
2816	0.951695
2815	0.937485
2814	0.918126
2813	0.901293
2812	0.889635
2811	0.881052
2810	0.873708
2809	0.87049
2808	0.877475
2807	0.894188
2806	0.908327
2805	0.906777
2804	0.889873
2803	0.867152
2802	0.842952
2801	0.816273
2800	0.790667
2799	0.774121
2798	0.769186
2797	0.772619
2796	0.781154
2795	0.79205
2794	0.799703
2793	0.797152
2792	0.783157
2791	0.765657
2790	0.75438
2789	0.748467
2788	0.737643
2787	0.718688
2786	0.700497
2785	0.688457
2784	0.67842
2783	0.668787
2782	0.663375
2781	0.65968
2780	0.651121
2779	0.642776
2778	0.64547
2777	0.655579
2776	0.658655
2775	0.652027
2774	0.645446
2773	0.642967
2772	0.642108
2771	0.645375
2770	0.65577
2769	0.667357
2768	0.67327
2767	0.676059
2766	0.678706
2765	0.677347
2764	0.671744
2763	0.670719
2762	0.677537
2761	0.681805
2760	0.674629
2759	0.662779
2758	0.6608
2757	0.673127
2756	0.689911
2755	0.699234
2754	0.699424
2753	0.697016
2752	0.695085
2751	0.691509
2750	0.687122
2749	0.685977
2748	0.686693
2747	0.684404
2746	0.679564
2745	0.675892
2744	0.672602
2743	0.667428
2742	0.662398
2741	0.656628
2740	0.642514
2739	0.619888
2738	0.602221
2737	0.598192
2736	0.598883
2735	0.593781
2734	0.585293
2733	0.578808
2732	0.574302
2731	0.575137
2730	0.588798
2729	0.611352
2728	0.627231
2727	0.628876
2726	0.623011
2725	0.616145
2724	0.608086
2723	0.601553
2722	0.603127
2721	0.613379
2720	0.625753
2719	0.634503
2718	0.636577
2717	0.63014
2716	0.618028
2715	0.609207
2714	0.60904
2713	0.611877
2712	0.609302
2711	0.601458
2710	0.596427
2709	0.599312
2708	0.607299
2707	0.613856
2706	0.616097
2705	0.617051
2704	0.620269
2703	0.62313
2702	0.617718
2701	0.600743
2700	0.580859
2699	0.571846
2698	0.578093
2697	0.588512
2696	0.587177
2695	0.571703
2694	0.558257
2693	0.562715
2692	0.580978
2691	0.596308
2690	0.599908
2689	0.593924
2688	0.582242
2687	0.572896
2686	0.57764
2685	0.595092
2684	0.607609
2683	0.608587
2682	0.614237
2681	0.633621
2680	0.649547
2679	0.644922
2678	0.62747
2677	0.614786
2676	0.612473
2675	0.617623
2674	0.626182
2673	0.63064
2672	0.624346
2671	0.612521
2670	0.606369
2669	0.607299
2668	0.610256
2667	0.617003
2666	0.630354
2665	0.641655
2664	0.640797
2663	0.632905
2662	0.629568
2661	0.629377
2660	0.622153
2659	0.607109
2658	0.594425
2657	0.592088
2656	0.598359
2655	0.604152
2654	0.600814
2653	0.586628
2652	0.567626
2651	0.553226
2650	0.551199
2649	0.558519
2648	0.558519
2647	0.53904
2646	0.512695
2645	0.500392
2644	0.498676
2643	0.487518
2642	0.466799
2641	0.456213
2640	0.460863
2639	0.46482
2638	0.45824
2637	0.446605
2636	0.435185
2635	0.424194
2634	0.416707
2633	0.416064
2632	0.418424
2631	0.417709
2630	0.412225
2629	0.400495
2628	0.380778
2627	0.360798
2626	0.353717
2625	0.358176
2624	0.358319
2623	0.34883
2622	0.341081
2621	0.339674
2620	0.33586
2619	0.329828
2618	0.333809
2617	0.348114
2616	0.356912
2615	0.351333
2614	0.339794
2613	0.332427
2612	0.331521
2611	0.336551
2610	0.345325
2609	0.351548
2608	0.348687
2607	0.336241
2606	0.318598
2605	0.300478
2604	0.284695
2603	0.274467
2602	0.274538
2601	0.285816
2600	0.297188
2599	0.292539
2598	0.270771
2597	0.248384
2596	0.236892
2595	0.232005
2594	0.229263
2593	0.231838
2592	0.23806
2591	0.240993
2590	0.243663
2589	0.253272
2588	0.262784
2587	0.260972
2586	0.256824
2585	0.266265
2584	0.281572
2583	0.284743
2582	0.280475
2581	0.284719
2580	0.293874
2579	0.294589
2578	0.289082
2577	0.284004
2576	0.275397
2575	0.267124
2574	0.277853
2573	0.308251
2572	0.329589
2571	0.323724
2570	0.308418
2569	0.305771
2568	0.310873
2567	0.307011
2566	0.293755
2565	0.284814
2564	0.287461
2563	0.293707
2562	0.291061
2561	0.278282
2560	0.26915
2559	0.27728
2558	0.298404
2557	0.314331
2556	0.315165
2555	0.310111
2554	0.313377
2553	0.324821
2552	0.32916
2551	0.315117
2550	0.290942
2549	0.275611
2548	0.273871
2547	0.274252
2546	0.274825
2545	0.287723
2544	0.310134
2543	0.319838
2542	0.312781
2541	0.311732
2540	0.32463
2539	0.330638
2538	0.320124
2537	0.313591
2536	0.327801
2535	0.353503
2534	0.374364
2533	0.383305
2532	0.378203
2531	0.364089
2530	0.355219
2529	0.356888
2528	0.352692
2527	0.330972
2526	0.308561
2525	0.306224
2524	0.316357
2523	0.319051
2522	0.31166
2521	0.301837
2520	0.290584
2519	0.282788
2518	0.290584
2517	0.308036
2516	0.308799
2515	0.285005
2514	0.260329
2513	0.25289
2512	0.25444
2511	0.25444
2510	0.255036
2509	0.255513
2508	0.249433
2507	0.240683
2506	0.240516
2505	0.248265
2504	0.252079
2503	0.24898
2502	0.248193
2501	0.255179
2500	0.264191
2499	0.268602
2498	0.273132
2497	0.289702
2496	0.319385
2495	0.345635
2494	0.352215
2493	0.341081
2492	0.324964
2491	0.31147
2490	0.303435
2489	0.303435
2488	0.308322
2487	0.310134
2486	0.308918
2485	0.310587
2484	0.310063
2483	0.299024
2482	0.287985
2481	0.292038
2480	0.298595
2479	0.285029
2478	0.261092
2477	0.253272
2476	0.258421
2475	0.258541
2474	0.263643
2473	0.290346
2472	0.319004
2471	0.322771
2470	0.313925
2469	0.317478
2468	0.325775
2467	0.320291
2466	0.309348
2465	0.308203
2464	0.312066
2463	0.314164
2462	0.320315
2461	0.326418
2460	0.31588
2459	0.293183
2458	0.284767
2457	0.297307
2456	0.309181
2455	0.308012
2454	0.305342
2453	0.309514
2452	0.313544
2451	0.313401
2450	0.316977
2449	0.329613
2448	0.342726
2447	0.342726
2446	0.328087
2445	0.3129
2444	0.308418
2443	0.31054
2442	0.313115
2441	0.319719
2440	0.328326
2439	0.322866
2438	0.298643
2437	0.275206
2436	0.266027
2435	0.259709
2434	0.247764
2433	0.241899
2432	0.248527
2431	0.257086
2430	0.263309
2429	0.271701
2428	0.271439
2427	0.249505
2426	0.22633
2425	0.233507
2424	0.261545
2423	0.275588
2422	0.272417
2421	0.271439
2420	0.267195
2419	0.245356
2418	0.224733
2417	0.229048
2416	0.241804
2415	0.23663
2414	0.223016
2413	0.22118
2412	0.225067
2411	0.226712
2410	0.239086
2409	0.263428
2408	0.273513
2407	0.258302
2406	0.241684
2405	0.242352
2404	0.249934
2403	0.253939
2402	0.262379
2401	0.280475
2400	0.295782
2399	0.294566
2398	0.279951
2397	0.266814
2396	0.262784
2395	0.261473
2394	0.257325
2393	0.257515
2392	0.268316
2391	0.278615
2390	0.275325
2389	0.265789
2388	0.265336
2387	0.273013
2386	0.277519
2385	0.27678
2384	0.27635
2383	0.277256
2382	0.278162
2381	0.278139
2380	0.269269
2379	0.245118
2378	0.220561
2377	0.219774
2376	0.239539
2375	0.254058
2374	0.257349
2373	0.26133
2372	0.257825
2371	0.231361
2370	0.203752
2369	0.207924
2368	0.228881
2367	0.231885
2366	0.227713
2365	0.242233
2364	0.254416
2363	0.235438
2362	0.211524
2361	0.21944
2360	0.24271
2359	0.251102
2358	0.255942
2357	0.272488
2356	0.276589
2355	0.246953
2354	0.208163
2353	0.194025
2352	0.203418
2351	0.21553
2350	0.219345
2349	0.214314
2348	0.20523
2347	0.205636
2346	0.226593
2345	0.260066
2344	0.284028
2343	0.284433
2342	0.269794
2341	0.260734
2340	0.266838
2339	0.277566
2338	0.281095
2337	0.279617
2336	0.272917
2335	0.248789
2334	0.214338
2333	0.209236
2332	0.256371
2331	0.32432
2330	0.368189
2329	0.378417
2328	0.364136
2327	0.3268
2326	0.279188
2325	0.249862
2324	0.24476
2323	0.241112
2322	0.23334
2321	0.239825
2320	0.257682
2319	0.262069
2318	0.253725
2317	0.253081
2316	0.252389
2315	0.232148
2314	0.211572
2313	0.218248
2312	0.229549
2311	0.212454
2310	0.19114
2309	0.202894
2308	0.226688
2307	0.225996
2306	0.216937
2305	0.22912
2304	0.245046
2303	0.236296
2302	0.215411
2301	0.206375
2300	0.204992
2299	0.201463
2298	0.20473
2297	0.218987
2296	0.227284
2295	0.215363
2294	0.192642
2293	0.17836
2292	0.178074
2291	0.180959
2290	0.17631
2289	0.169253
2288	0.171828
2287	0.183391
2286	0.192546
2285	0.195026
2284	0.193881
2283	0.18804
2282	0.17836
2281	0.175333
2280	0.182652
2279	0.186681
2278	0.182604
2277	0.188183
2276	0.209712
2275	0.225472
2274	0.226593
2273	0.234675
2272	0.256156
2271	0.266671
2270	0.261592
2269	0.264644
2268	0.27039
2267	0.245523
2266	0.2002
2265	0.183939
2264	0.202894
2263	0.215864
2262	0.211882
2261	0.214147
2260	0.215816
2259	0.193738
2258	0.169181
2257	0.175714
2256	0.192809
2255	0.18351
2254	0.163149
2253	0.162577
2252	0.166869
2251	0.153851
2250	0.145649
2249	0.166106
2248	0.193023
2247	0.198817
2246	0.194096
2245	0.194978
2244	0.192332
2243	0.180125
2242	0.173449
2241	0.180077
2240	0.186562
2239	0.184059
2238	0.181031
2237	0.183963
2236	0.183296
2235	0.166392
2234	0.139808
2233	0.128197
2232	0.143027
2231	0.163197
2230	0.167131
2229	0.165724
2228	0.174856
2227	0.180315
2226	0.17147
2225	0.174665
2224	0.206923
2223	0.237274
2222	0.241041
2221	0.240731
2220	0.247883
2219	0.231885
2218	0.189876
2217	0.169539
2216	0.1832
2215	0.183367
2214	0.154232
2213	0.137877
2212	0.148367
2211	0.151491
2210	0.142574
2209	0.155234
2208	0.184869
2207	0.188279
2206	0.160312
2205	0.136423
2204	0.127863
2203	0.121545
2202	0.124692
2201	0.145125
2200	0.156664
2199	0.138807
2198	0.118899
2197	0.127744
2196	0.150036
2195	0.159788
2194	0.165271
2193	0.180912
2192	0.192761
2191	0.185489
2190	0.171709
2189	0.172138
2188	0.189685
2187	0.215959
2186	0.243854
2185	0.264978
2184	0.26977
2183	0.257778
2182	0.24414
2181	0.248432
2180	0.268745
2179	0.274944
2178	0.243973
2177	0.194454
2176	0.164079
2175	0.163435
2174	0.178813
2173	0.202798
2172	0.2285
2171	0.235438
2170	0.217676
2169	0.200438
2168	0.198602
2167	0.192785
2166	0.17662
2165	0.177478
2164	0.199365
2163	0.205826
2162	0.188684
2161	0.18506
2160	0.202488
2159	0.204825
2158	0.188422
2157	0.190448
2156	0.209259
2155	0.202798
2154	0.170612
2153	0.154399
2152	0.15943
2151	0.156664
2150	0.150275
2149	0.164222
2148	0.183439
2147	0.181245
2146	0.17457
2145	0.187921
2144	0.200724
2143	0.188684
2142	0.174736
2141	0.187063
2140	0.209474
2139	0.216221
2138	0.216388
2137	0.227427
2136	0.241017
2135	0.241637
2134	0.232577
2133	0.2249
2132	0.220561
2131	0.216221
2130	0.212359
2129	0.213575
2128	0.220632
2127	0.226473
2126	0.226306
2125	0.226879
2124	0.233006
2123	0.233936
2122	0.223875
2121	0.221252
2120	0.239276
2119	0.256872
2118	0.254225
2117	0.249934
2116	0.265884
2115	0.286173
2114	0.288724
2113	0.283765
2112	0.284838
2111	0.280451
2110	0.268578
2109	0.271534
2108	0.290298
2107	0.295281
2106	0.28212
2105	0.278019
2104	0.281691
2103	0.264787
2102	0.238275
2101	0.241827
2100	0.2671
2099	0.267982
2098	0.243163
2097	0.230312
2096	0.232601
2095	0.229263
2094	0.235009
2093	0.270843
2092	0.307154
2091	0.30775
2090	0.292325
2089	0.290346
2088	0.28243
2087	0.244808
2086	0.202202
2085	0.18475
2084	0.18146
2083	0.17836
2082	0.190854
2081	0.225424
2080	0.25525
2079	0.260162
2078	0.254702
2077	0.260043
2076	0.274801
2075	0.284337
2074	0.282263
2073	0.274467
2072	0.265979
2071	0.252008
2070	0.230503
2069	0.214958
2068	0.215816
2067	0.219488
2066	0.214481
2065	0.216722
2064	0.235962
2063	0.245928
2062	0.230288
2061	0.218367
2060	0.230407
2059	0.237154
2058	0.219297
2057	0.208163
2056	0.221467
2055	0.226283
2054	0.207376
2053	0.196051
2052	0.198984
2051	0.183486
2050	0.155496
2049	0.160121
2048	0.192284
2047	0.20194
2046	0.190138
2045	0.202798
2044	0.233721
2043	0.233411
2042	0.203204
2041	0.185608
2040	0.181794
2039	0.165081
2038	0.146508
2037	0.149512
2036	0.156831
2035	0.150299
2034	0.156474
2033	0.195384
2032	0.23272
2031	0.233602
2030	0.215291
2029	0.205945
2028	0.200295
2027	0.188875
2026	0.185108
2025	0.196123
2024	0.203585
2023	0.192451
2022	0.17116
2021	0.155162
2020	0.149011
2019	0.14925
2018	0.154018
2017	0.163841
2016	0.17457
2015	0.176215
2014	0.169801
2013	0.173401
2012	0.190639
2011	0.193548
2010	0.168156
2009	0.148081
2008	0.1616
2007	0.184273
2006	0.188922
2005	0.192403
2004	0.204467
2003	0.196218
2002	0.168251
2001	0.171113
2000	0.211119
1999	0.228524
1998	0.206661
1997	0.197625
1996	0.212883
1995	0.204205
1994	0.171279
1993	0.168776
1992	0.195765
1991	0.195479
1990	0.166058
1989	0.159811
1988	0.18053
1987	0.188875
1986	0.187015
1985	0.200724
1984	0.211286
1983	0.192999
1982	0.174498
1981	0.18754
1980	0.204157
1979	0.190019
1978	0.16818
1977	0.173115
1976	0.190973
1975	0.193715
1974	0.187134
1973	0.188732
1972	0.196051
1971	0.200963
1970	0.20554
1969	0.209617
1968	0.206971
1967	0.200128
1966	0.200915
1965	0.213551
1964	0.22571
1963	0.22068
1962	0.199127
1961	0.18177
1960	0.180697
1959	0.181221
1958	0.171923
1957	0.171232
1956	0.191164
1955	0.205063
1954	0.192332
1953	0.1791
1952	0.188684
1951	0.197625
1950	0.18835
1949	0.188994
1948	0.213432
1947	0.228714
1946	0.224947
1945	0.237584
1944	0.266885
1943	0.267457
1942	0.24259
1941	0.246715
1940	0.277495
1939	0.276827
1938	0.24352
1937	0.232124
1936	0.242471
1935	0.228047
1934	0.199961
1933	0.205802
1932	0.230479
1931	0.230026
1930	0.223946
1929	0.252413
1928	0.290846
1927	0.301289
1926	0.308179
1925	0.341677
1924	0.368714
1923	0.350522
1922	0.310373
1921	0.285077
1920	0.267124
1919	0.238108
1918	0.210213
1917	0.201702
1916	0.208044
1915	0.217103
1914	0.226545
1913	0.237369
1912	0.244426
1911	0.243163
1910	0.244832
1909	0.273633
1908	0.330042
1907	0.37167
1906	0.364518
1905	0.334095
1904	0.320863
1903	0.31538
1902	0.29385
1901	0.277543
1900	0.28975
1899	0.300908
1898	0.283813
1897	0.268125
1896	0.278115
1895	0.281453
1894	0.258874
1893	0.245881
1892	0.25525
1891	0.246906
1890	0.216865
1889	0.216054
1888	0.249361
1887	0.261282
1886	0.243759
1885	0.247144
1884	0.275206
1883	0.280594
1882	0.265121
1881	0.270223
1880	0.281763
1879	0.257802
1878	0.223469
1877	0.226473
1876	0.24116
1875	0.222873
1874	0.201964
1873	0.223135
1872	0.254702
1871	0.248575
1870	0.225949
1869	0.228428
1868	0.243353
1867	0.239586
1866	0.226068
1865	0.227189
1864	0.238347
1863	0.238513
1862	0.224065
1861	0.210213
1860	0.207471
1859	0.206899
1858	0.195288
1857	0.180816
1856	0.182867
1855	0.199508
1854	0.212264
1853	0.219058
1852	0.226545
1851	0.222659
1850	0.201725
1849	0.194096
1848	0.219368
1847	0.242948
1846	0.23458
1845	0.221896
1844	0.227618
1843	0.219798
1842	0.186467
1841	0.179243
1840	0.216031
1839	0.23446
1838	0.204157
1837	0.181627
1836	0.198507
1835	0.210404
1834	0.199699
1833	0.208067
1832	0.236558
1831	0.235772
1830	0.210237
1829	0.212025
1828	0.231766
1827	0.216364
1826	0.181818
1825	0.186443
1824	0.217103
1823	0.217199
1822	0.194501
1821	0.196647
1820	0.219464
1819	0.22931
1818	0.232863
1817	0.249099
1816	0.25897
1815	0.243067
1814	0.223183
1813	0.22242
1812	0.22571
1811	0.213217
1810	0.194811
1809	0.187325
1808	0.188398
1807	0.188422
1806	0.1899
1805	0.202131
1804	0.222277
1803	0.23117
1802	0.216031
1801	0.191807
1800	0.180196
1799	0.177121
1798	0.17085
1797	0.176
1796	0.204324
1795	0.226449
1794	0.216126
1793	0.200438
1792	0.208878
1791	0.217843
1790	0.206851
1789	0.209403
1788	0.24302
1787	0.260519
1786	0.235176
1785	0.212526
1784	0.21944
1783	0.217628
1782	0.19474
1781	0.195598
1780	0.22335
1779	0.224065
1778	0.197505
1777	0.20368
1776	0.245213
1775	0.262475
1774	0.248789
1773	0.251722
1772	0.268435
1771	0.257611
1770	0.234794
1769	0.243663
1768	0.265026
1767	0.257515
1766	0.243449
1765	0.257849
1764	0.27194
1763	0.254535
1762	0.241565
1761	0.26617
1760	0.291204
1759	0.27852
1758	0.253319
1757	0.246286
1756	0.24116
1755	0.223898
1754	0.218105
1753	0.239467
1752	0.264263
1751	0.26617
1750	0.255179
1749	0.26133
1748	0.29006
1747	0.309252
1746	0.295972
1745	0.276088
1744	0.281476
1743	0.291538
1742	0.277328
1741	0.267529
1740	0.294399
1739	0.319457
1738	0.300335
1737	0.272989
1736	0.279903
1735	0.28994
1734	0.275802
1733	0.279378
1732	0.316715
1731	0.324702
1730	0.278472
1729	0.245189
1728	0.256919
1727	0.257301
1726	0.2249
1725	0.215721
1724	0.243639
1723	0.253129
1722	0.23365
1721	0.231575
1720	0.243449
1719	0.224137
1718	0.192332
1717	0.202512
1716	0.234436
1715	0.230145
1714	0.205516
1713	0.213956
1712	0.243091
1711	0.247097
1710	0.234127
1709	0.236034
1708	0.241374
1707	0.228333
1706	0.215482
1705	0.225567
1704	0.243663
1703	0.249576
1702	0.249052
1701	0.24898
1700	0.239062
1699	0.215792
1698	0.196385
1697	0.195789
1696	0.204157
1695	0.198316
1694	0.178718
1693	0.17879
1692	0.216245
1691	0.252079
1690	0.240731
1689	0.202178
1688	0.186276
1687	0.192761
1686	0.195312
1685	0.205755
1684	0.235676
1683	0.246334
1682	0.218605
1681	0.205588
1680	0.237631
1679	0.259304
1678	0.236821
1677	0.224232
1676	0.249314
1675	0.254631
1674	0.219321
1673	0.206899
1672	0.237369
1671	0.249099
1670	0.227785
1669	0.230979
1668	0.261926
1667	0.260996
1666	0.230669
1665	0.231146
1664	0.255703
1663	0.24631
1662	0.213766
1661	0.215244
1660	0.242257
1659	0.244975
1658	0.229454
1657	0.231051
1656	0.23868
1655	0.228571
1654	0.222563
1653	0.245332
1652	0.271487
1651	0.26884
1650	0.250482
1649	0.244641
1648	0.250935
1647	0.254511
1646	0.255298
1645	0.263953
1644	0.281834
1643	0.296139
1642	0.297188
1641	0.293946
1640	0.295996
1639	0.289559
1638	0.263905
1637	0.24743
1636	0.267052
1635	0.290966
1634	0.276613
1633	0.246834
1632	0.242376
1631	0.243186
1630	0.22161
1629	0.214076
1628	0.249409
1627	0.277781
1626	0.2604
1625	0.244975
1624	0.267887
1623	0.281786
1622	0.25866
1621	0.250601
1620	0.278043
1619	0.284504
1618	0.255942
1617	0.250697
1616	0.27337
1615	0.261545
1614	0.218796
1613	0.215792
1612	0.251173
1611	0.255823
1610	0.230383
1609	0.237822
1608	0.274658
1607	0.283908
1606	0.268077
1605	0.269246
1604	0.275468
1603	0.253677
1602	0.22664
1601	0.228548
1600	0.23787
1599	0.22521
1598	0.212907
1597	0.228548
1596	0.251102
1595	0.249719
1594	0.234365
1593	0.23415
1592	0.252556
1591	0.267982
1590	0.265502
1589	0.256586
1588	0.258946
1587	0.267314
1586	0.267529
1585	0.270771
1584	0.291919
1583	0.306129
1582	0.286006
1581	0.262975
1580	0.276255
1579	0.293374
1578	0.271391
1577	0.24724
1576	0.26803
1575	0.296401
1574	0.289583
1573	0.28727
1572	0.318503
1571	0.325083
1570	0.278949
1569	0.255727
1568	0.295543
1567	0.325655
1566	0.304007
1565	0.293231
1564	0.32339
1563	0.333046
1562	0.300431
1561	0.284481
1560	0.300812
1559	0.299048
1558	0.278258
1557	0.291323
1556	0.332593
1555	0.3448
1554	0.32761
1553	0.326442
1552	0.337076
1551	0.322437
1550	0.293397
1549	0.287628
1548	0.299954
1547	0.303196
1546	0.302529
1545	0.315952
1544	0.334429
1543	0.341105
1542	0.341987
1541	0.350022
1540	0.361251
1539	0.364422
1538	0.360298
1537	0.360918
1536	0.370121
1535	0.371861
1534	0.355696
1533	0.34523
1532	0.36745
1531	0.402092
1530	0.411701
1529	0.40884
1528	0.425577
1527	0.438737
1526	0.410032
1525	0.37086
1524	0.372624
1523	0.392484
1522	0.386047
1521	0.377702
1520	0.399994
1519	0.415325
1518	0.393486
1517	0.382304
1516	0.412583
1515	0.431323
1514	0.410389
1513	0.406074
1512	0.441193
1511	0.453662
1510	0.42212
1509	0.409507
1508	0.436496
1507	0.446677
1506	0.427913
1505	0.434041
1504	0.469112
1503	0.477576
1502	0.454378
1501	0.445699
1500	0.452256
1499	0.442647
1498	0.436806
1497	0.470757
1496	0.514531
1495	0.51794
1494	0.499105
1493	0.506353
1492	0.536656
1491	0.555753
1490	0.561141
1489	0.571274
1488	0.588011
1487	0.603008
1486	0.621843
1485	0.655245
1484	0.70188
1483	0.747704
1482	0.785446
1481	0.825929
1480	0.880646
1479	0.936198
1478	0.977873
1477	1.02775
1476	1.118183
1475	1.232957
1474	1.334738
1473	1.436734
1472	1.575946
1471	1.743459
1470	1.919889
1469	2.15528
1468	2.510738
1467	2.97544
1466	3.511238
1465	4.09727
1464	4.657411
1463	5.03416
1462	5.172348
1461	5.194258
1460	5.230593
1459	5.285024
1458	5.370426
1457	5.602073
1456	6.067037
1455	6.697034
1454	7.331395
1453	7.771468
1452	7.784628
1451	7.235336
1450	6.259393
1449	5.185699
1448	4.262828
1447	3.557205
1446	3.064608
1445	2.773332
1444	2.624106
1443	2.539896
1442	2.496385
1441	2.508783
1440	2.564382
1439	2.636742
1438	2.722549
1437	2.828931
1436	2.938723
1435	3.027272
1434	3.097009
1433	3.160429
1432	3.227114
1431	3.283071
1430	3.316926
1429	3.329706
1428	3.330779
1427	3.31037
1426	3.258132
1425	3.197979
1424	3.165316
1423	3.150343
1422	3.127551
1421	3.126573
1420	3.196048
1419	3.314685
1418	3.433775
1417	3.575921
1416	3.788399
1415	4.03788
1414	4.260349
1413	4.458045
1412	4.64549
1411	4.770755
1410	4.804015
1409	4.813551
1408	4.863405
1407	4.919052
1406	4.945373
1405	4.977917
1404	5.030918
1403	5.046558
1402	5.005455
1401	4.958844
1400	4.911613
1399	4.793572
1398	4.583406
1397	4.341387
1396	4.101252
1395	3.84016
1394	3.565168
1393	3.326463
1392	3.141832
1391	2.991747
1390	2.880549
1389	2.825593
1388	2.810311
1387	2.804017
1386	2.813768
1385	2.853155
1384	2.905368
1383	2.940845
1382	2.967786
1381	3.012609
1380	3.088212
1379	3.182649
1378	3.292346
1377	3.436017
1376	3.639721
1375	3.904008
1374	4.212474
1373	4.566812
1372	4.976344
1371	5.409359
1370	5.805802
1369	6.143999
1368	6.440687
1367	6.688475
1366	6.859135
1365	6.961202
1364	7.021164
1363	7.025313
1362	6.957006
1361	6.858658
1360	6.781792
1359	6.708669
1358	6.609487
1357	6.507134
1356	6.421089
1355	6.300711
1354	6.115865
1353	5.918884
1352	5.766248
1351	5.646657
1350	5.561947
1349	5.556058
1348	5.618715
1347	5.666208
1346	5.667471
1345	5.668306
1344	5.668854
1343	5.603885
1342	5.463981
1341	5.310344
1340	5.165362
1339	5.001068
1338	4.837322
1337	4.730272
1336	4.685568
1335	4.668879
1334	4.687213
1333	4.773163
1332	4.91383
1331	5.074095
1330	5.25341
1329	5.4811
1328	5.76713
1327	6.107568
1326	6.51009
1325	6.99768
1324	7.575225
1323	8.200836
1322	8.777284
1321	9.184145
1320	9.325146
1319	9.169149
1318	8.779287
1317	8.303689
1316	7.886695
1315	7.571172
1314	7.321929
1313	7.116818
1312	6.94766
1311	6.758689
1310	6.49333
1309	6.180548
1308	5.880928
1307	5.579638
1306	5.24075
1305	4.909229
1304	4.649543
1303	4.447841
1302	4.26743
1301	4.142975
1300	4.098558
1299	4.093408
1298	4.100275
1297	4.171395
1296	4.328036
1295	4.512023
1294	4.689741
1293	4.903364
1292	5.166769
1291	5.431294
1290	5.689811
1289	6.002283
1288	6.395363
1287	6.834936
1286	7.294416
1285	7.768392
1284	8.197975
1283	8.499169
1282	8.642125
1281	8.662199
1280	8.592677
1279	8.487582
1278	8.456778
1277	8.651995
1276	9.170961
1275	10.014343
1274	11.033463
1273	11.916399
1272	12.271165
1271	11.835956
1270	10.649108
1269	9.030699
1268	7.385587
1267	5.988478
1266	4.922032
1265	4.159736
1264	3.641629
1263	3.278613
1262	2.986526
1261	2.751684
1260	2.604556
1259	2.525424
1258	2.463126
1257	2.426028
1256	2.458453
1255	2.550387
1254	2.665281
1253	2.842998
1252	3.127932
1251	3.482699
1250	3.830194
1249	4.158401
1248	4.454803
1247	4.644703
1246	4.674601
1245	4.600143
1244	4.495954
1243	4.374289
1242	4.246163
1241	4.16305
1240	4.133057
1239	4.092955
1238	4.014277
1237	3.937554
1236	3.881263
1235	3.813886
1234	3.736519
1233	3.697228
1232	3.708004
1231	3.727793
1230	3.72858
1229	3.70872
1228	3.65014
1227	3.528904
1226	3.364419
1225	3.21021
1224	3.104281
1223	3.058123
1222	3.072166
1221	3.131675
1220	3.190135
1219	3.177309
1218	3.041338
1217	2.788424
1216	2.476739
1215	2.1636
1214	1.87807
1213	1.643037
1212	1.482915
1211	1.389765
1210	1.324892
1209	1.269507
1208	1.23229
1207	1.204061
1206	1.162004
1205	1.11835
1204	1.101756
1203	1.098108
1202	1.076698
1201	1.05915
1200	1.078605
1199	1.108646
1198	1.107192
1197	1.098561
1196	1.117181
1195	1.132535
1194	1.109051
1193	1.083922
1192	1.096653
1191	1.119828
1190	1.125502
1189	1.145982
1188	1.197266
1187	1.236343
1186	1.245617
1185	1.272439
1184	1.339173
1183	1.409292
1182	1.46923
1181	1.554894
1180	1.67582
1179	1.798081
1178	1.912736
1177	2.04153
1176	2.177023
1175	2.288222
1174	2.3808
1173	2.49207
1172	2.631688
1171	2.788114
1170	2.970504
1169	3.214144
1168	3.540968
1167	3.951525
1166	4.438328
1165	4.994821
1164	5.598044
1163	6.186652
1162	6.66902
1161	6.964421
1160	7.03454
1159	6.878876
1158	6.538319
1157	6.116008
1156	5.739808
1155	5.484223
1154	5.357241
1153	5.3617
1152	5.502676
1151	5.738806
1150	5.995941
1149	6.2294
1148	6.405019
1147	6.440973
1146	6.263709
1145	5.904126
1144	5.465888
1143	5.028533
1142	4.649662
1141	4.406595
1140	4.332113
1139	4.376149
1138	4.487895
1137	4.690051
1136	4.984402
1135	5.286765
1134	5.494427
1133	5.5799
1132	5.543875
1131	5.390787
1130	5.174398
1129	5.005383
1128	4.963326
1127	5.068182
1126	5.338597
1125	5.811548
1124	6.490826
1123	7.343888
1122	8.339238
1121	9.427928
1120	10.484647
1119	11.330056
1118	11.818957
1117	11.889147
1116	11.553359
1115	10.877966
1114	9.970331
1113	8.937478
1112	7.863259
1111	6.809926
1110	5.835652
1109	4.995059
1108	4.31652
1107	3.78952
1106	3.378653
1105	3.068828
1104	2.863001
1103	2.750325
1102	2.698278
1101	2.700734
1100	2.775692
1099	2.922677
1098	3.128409
1097	3.420257
1096	3.842949
1095	4.386401
1094	4.990792
1093	5.618309
1092	6.221675
1091	6.710672
1090	7.01549
1089	7.185864
1088	7.316803
1087	7.430243
1086	7.509946
1085	7.569289
1084	7.62012
1083	7.620286
1082	7.573604
1081	7.58872
1080	7.808518
1079	8.312845
1078	9.129285
1077	10.187458
1076	11.221909
1075	11.843991
1074	11.795687
1073	11.120367
1072	10.070562
1071	8.94761
1070	7.996082
1069	7.355737
1068	7.041049
1067	7.009673
1066	7.24461
1065	7.778477
1064	8.643364
1063	9.834909
1062	11.267113
1061	12.743091
1060	13.946533
1059	14.538264
1058	14.322185
1057	13.387537
1056	12.08055
1055	10.783338
1054	9.744024
1053	9.063029
1052	8.751797
1051	8.726739
1050	8.814883
1049	8.852696
1048	8.747434
1047	8.46014
1046	7.992053
1045	7.410025
1044	6.807422
1043	6.226348
1042	5.66647
1041	5.166363
1040	4.790139
1039	4.557418
1038	4.449558
1037	4.476189
1036	4.662466
1035	4.990291
1034	5.421352
1033	5.93574
1032	6.476616
1031	6.916236
1030	7.126903
1029	7.075119
1028	6.774425
1027	6.251597
1026	5.58083
1025	4.90663
1024	4.348707
1023	3.944945
1022	3.69997
1021	3.634762
1020	3.755497
1019	4.021525
1018	4.364275
1017	4.705882
1016	4.956936
1015	5.041718
1014	4.945325
1013	4.724502
1012	4.47309
1011	4.274153
1010	4.181122
1009	4.218363
1008	4.399538
1007	4.718637
1006	5.136203
1005	5.566549
1004	5.889844
1003	5.978775
1002	5.760645
1001	5.29468
1000	4.741048
999	4.237651
998	3.827095
997	3.530693
996	3.403329
995	3.485465
994	3.755235
993	4.160904
992	4.621601
991	4.992246
990	5.111551
989	4.923558
988	4.497981
987	3.941965
986	3.345942
985	2.800416
984	2.368998
983	2.046418
982	1.78864
981	1.580262
980	1.430249
979	1.326465
978	1.244306
977	1.175355
976	1.118993
975	1.061964
974	1.000738
973	0.95489
972	0.934123
971	0.924944
970	0.912666
969	0.908637
968	0.920891
967	0.943922
966	0.971746
965	1.012778
964	1.070547
963	1.13995
962	1.219439
961	1.313495
960	1.420807
959	1.536011
958	1.6613
957	1.807427
956	1.982474
955	2.194333
954	2.451038
953	2.755403
952	3.081154
951	3.364276
950	3.534221
949	3.576993
948	3.550171
947	3.520393
946	3.50809
945	3.502058
944	3.487753
943	3.426671
942	3.270077
941	3.012752
940	2.715539
939	2.432656
938	2.194714
937	2.031397
936	1.97854
935	2.023124
934	2.122855
933	2.274608
932	2.52428
931	2.914929
930	3.492116
929	4.341387
928	5.556344
927	7.138657
926	8.951878
925	10.728263
924	12.100958
923	12.724065
922	12.467193
921	11.512231
920	10.222339
919	8.940887
918	7.901167
917	7.218289
916	6.891989
915	6.812787
914	6.834244
913	6.820654
912	6.675291
911	6.346178
910	5.851316
909	5.268073
908	4.694485
907	4.192471
906	3.771281
905	3.413581
904	3.128361
903	2.927398
902	2.811193
901	2.770543
900	2.842211
899	3.085875
898	3.556418
897	4.323816
896	5.441474
895	6.853413
894	8.319211
893	9.537816
892	10.330271
891	10.756182
890	11.08787
889	11.705517
888	12.87775
887	14.540743
886	16.260075
885	17.448592
884	17.676019
883	16.858363
882	15.264201
881	13.347148
880	11.501359
879	9.900975
878	8.574509
877	7.550549
876	6.895303
875	6.611371
874	6.614279
873	6.779623
872	6.981253
871	7.072424
870	6.927633
869	6.490135
868	5.800437
867	4.971528
866	4.134893
865	3.41165
864	2.849578
863	2.441477
862	2.137446
861	1.897239
860	1.699805
859	1.544165
858	1.42641
857	1.333022
856	1.249241
855	1.168751
854	1.094317
853	1.032519
852	0.993227
851	0.972914
850	0.952911
849	0.922465
848	0.900721
847	0.901055
846	0.901269
845	0.879502
844	0.856995
843	0.853991
842	0.847339
841	0.816798
840	0.793385
839	0.804948
838	0.824952
837	0.820946
836	0.807642
835	0.804662
834	0.800991
833	0.793457
832	0.805878
831	0.839924
830	0.86615
829	0.879168
828	0.905394
827	0.948858
826	0.988936
825	1.031184
824	1.099109
823	1.181244
822	1.245379
821	1.297378
820	1.367807
819	1.45781
818	1.546955
817	1.640176
816	1.760888
815	1.912593
814	2.081584
813	2.261662
812	2.456879
811	2.660393
810	2.85294
809	3.01845
808	3.164386
807	3.308892
806	3.451204
805	3.566193
804	3.638482
803	3.671765
802	3.661775
801	3.595256
800	3.481602
799	3.344893
798	3.185772
797	2.999711
796	2.818965
795	2.677178
794	2.548193
793	2.392983
792	2.23577
791	2.123665
790	2.043819
789	1.961469
788	1.889061
787	1.845383
786	1.798319
785	1.721167
784	1.648449
783	1.610493
782	1.581478
781	1.538586
780	1.507735
779	1.500725
778	1.486587
777	1.45328
776	1.431536
775	1.431512
774	1.424407
773	1.400732
772	1.38731
771	1.396822
770	1.410675
769	1.41797
768	1.430702
767	1.458835
766	1.495647
765	1.530313
764	1.55785
763	1.579093
762	1.595735
761	1.611685
760	1.638007
759	1.685357
758	1.738595
757	1.765537
756	1.76692
755	1.783967
754	1.833128
753	1.882576
752	1.914906
751	1.953768
750	2.004003
749	2.037715
748	2.059292
747	2.108001
746	2.180624
745	2.23186
744	2.256464
743	2.28908
742	2.32768
741	2.349424
740	2.380275
739	2.458906
738	2.55618
737	2.62897
736	2.704334
735	2.82936
734	2.980399
733	3.120827
732	3.275489
731	3.47476
730	3.675079
729	3.812646
728	3.871369
727	3.852534
726	3.739333
725	3.539609
724	3.306174
723	3.080511
722	2.861022
721	2.642273
720	2.443194
719	2.28219
718	2.153825
717	2.042245
716	1.943802
715	1.868319
714	1.819705
713	1.783108
712	1.743435
711	1.705813
710	1.675462
709	1.637911
708	1.583933
707	1.537775
706	1.515769
705	1.497507
704	1.466584
703	1.446509
702	1.449108
701	1.44453
700	1.417398
699	1.398992
698	1.403021
697	1.398253
696	1.373052
695	1.357054
694	1.354503
693	1.335906
692	1.308059
691	1.308536
690	1.326823
689	1.321411
688	1.307773
687	1.331543
686	1.375484
685	1.392936
684	1.403379
683	1.446962
682	1.495289
681	1.506853
680	1.520633
679	1.58627
678	1.671957
677	1.72367
676	1.758456
675	1.815295
674	1.888799
673	1.968455
672	2.080011
671	2.230668
670	2.385592
669	2.527976
668	2.682924
667	2.859425
666	3.028678
665	3.173303
664	3.309845
663	3.452992
662	3.593015
661	3.720903
660	3.858137
659	4.041814
658	4.269599
657	4.47998
656	4.613161
655	4.66597
654	4.642057
653	4.507756
652	4.255986
651	3.972005
650	3.73764
649	3.556632
648	3.410005
647	3.333878
646	3.332114
645	3.35257
644	3.385686
643	3.497552
642	3.705215
641	3.94926
640	4.234504
639	4.651904
638	5.245256
637	5.98154
636	6.872916
635	7.972288
634	9.230017
633	10.46698
632	11.490702
631	12.131118
630	12.23216
629	11.755871
628	10.869193
627	9.804606
626	8.690953
625	7.604098
624	6.659984
623	5.938816
622	5.384659
621	4.917407
620	4.536795
619	4.27308
618	4.090356
617	3.941082
616	3.820109
615	3.737306
614	3.678202
613	3.632664
612	3.620958
611	3.666925
610	3.768444
609	3.896188
608	4.037952
607	4.222488
606	4.488468
605	4.834079
604	5.250859
603	5.769205
602	6.410193
601	7.111072
600	7.78017
599	8.365797
598	8.798122
597	8.947634
596	8.752036
595	8.299827
594	7.694125
593	6.955432
592	6.143927
591	5.413031
590	4.838347
589	4.34494
588	3.893113
587	3.546547
586	3.307604
585	3.07455
584	2.825236
583	2.645635
582	2.556419
581	2.487921
580	2.435398
579	2.44441
578	2.47426
577	2.442216
576	2.384519
575	2.384543
574	2.421808
573	2.426052
572	2.426695
571	2.47941
570	2.551031
569	2.579498
568	2.594304
567	2.647495
566	2.730321
565	2.802085
564	2.875542
563	2.973771
562	3.099775
561	3.237795
560	3.404259
559	3.618049
558	3.893017
557	4.207634
556	4.564619
555	5.004596
554	5.591297
553	6.342577
552	7.281112
551	8.4944
550	10.110998
549	12.205719
548	14.866709
547	18.20302
546	22.180461
545	26.400756
544	30.214953
543	32.96585
542	34.142947
541	33.509373
540	31.318569
539	28.285241
538	25.17786
537	22.452235
536	20.290613
535	18.703174
534	17.51914
533	16.441106
532	15.310215
531	14.134693
530	12.911748
529	11.599278
528	10.296845
527	9.177374
526	8.257341
525	7.420563
524	6.680607
523	6.124162
522	5.714988
521	5.322575
520	4.951214
519	4.667925
518	4.441165
517	4.191684
516	3.95708
515	3.801727
514	3.697896
513	3.566789
512	3.411364
511	3.270554
510	3.1605
509	3.074502
508	3.026652
507	3.01764
506	3.017687
505	2.98295
504	2.910161
503	2.848839
502	2.84698
501	2.884697
500	2.912425
499	2.936935
498	3.001022
497	3.099989
496	3.224825
495	3.441596
494	3.793478
493	4.178667
492	4.470586
491	4.671454
490	4.794502
489	4.740691
488	4.468393
487	4.130697
486	3.852725
485	3.568935
484	3.232693
483	2.968835
482	2.84388
481	2.741432
480	2.601313
479	2.529144
478	2.557802
477	2.578067
476	2.57802
475	2.6726
474	2.86107
473	3.027534
472	3.19209
471	3.482508
470	3.879165
469	4.249691
468	4.588341
467	4.966306
466	5.319666
465	5.524802
464	5.602979
463	5.649495
462	5.665326
461	5.620646
460	5.58362
459	5.628585
458	5.716943
457	5.755257
456	5.714464
455	5.615091
454	5.463552
453	5.255436
452	5.01852
451	4.830598
450	4.763102
449	4.825758
448	5.002617
447	5.333542
446	5.856847
445	6.491136
444	7.088041
443	7.584857
442	7.946348
441	8.04336
440	7.775521
439	7.275962
438	6.728887
437	6.160807
436	5.541872
435	5.00617
434	4.653286
433	4.37479
432	4.100871
431	3.968715
430	4.074454
429	4.288291
428	4.587864
427	5.195856
426	6.287288
425	7.821583
424	9.807324
423	12.249255
422	14.744615
421	16.514539
420	17.023587
419	16.319155
418	14.780521
417	12.849187
416	10.958456
415	9.384465
414	8.096647
413	6.978297
412	6.089782
411	5.57537
410	5.401492
409	5.455017
408	5.721545
407	6.219387
406	6.801104
405	7.238578
404	7.383894
403	7.217311
402	6.785583
401	6.182885
400	5.567669
399	5.099582
398	4.881525
397	4.923367
396	5.205726
395	5.734801
394	6.452918
393	7.111501
392	7.390475
391	7.16958
390	6.55384
389	5.681324
388	4.69551
387	3.834104
386	3.260254
385	2.880835
384	2.547407
383	2.326869
382	2.295732
381	2.305889
380	2.22814
379	2.201104
378	2.344894
377	2.510738
376	2.596426
375	2.767872
374	3.128623
373	3.521275
372	3.880262
371	4.388523
370	5.102348
369	5.829477
368	6.490302
367	7.181239
366	7.816243
365	8.131432
364	8.086395
363	7.872962
362	7.544064
361	7.014775
360	6.371951
359	5.815315
358	5.352544
357	4.874467
356	4.416728
355	4.095411
354	3.878784
353	3.668713
352	3.47464
351	3.366136
350	3.329014
349	3.305888
348	3.29113
347	3.31602
346	3.381323
345	3.443145
344	3.478622
343	3.531646
342	3.652572
341	3.791356
340	3.866314
339	3.919506
338	4.048752
337	4.205107
336	4.277181
335	4.330062
334	4.489207
333	4.66361
332	4.700708
331	4.694962
330	4.7935
329	4.875254
328	4.797506
327	4.714727
326	4.78003
325	4.823708
324	4.709029
323	4.635787
322	4.75018
321	4.846334
320	4.795193
319	4.8002
318	4.958152
317	5.044507
316	4.968571
315	4.923677
314	4.933333
313	4.77159
312	4.434967
311	4.172086
310	4.009532
309	3.746175
308	3.403472
307	3.195905
306	3.107261
305	2.949309
304	2.747511
303	2.665066
302	2.668046
301	2.603006
300	2.488327
299	2.440142
298	2.45428
297	2.442693
296	2.402663
295	2.389359
294	2.412271
293	2.43318
292	2.442932
291	2.497649
290	2.652883
289	2.877926
288	3.115773
287	3.427243
286	3.90942
285	4.47483
284	4.928565
283	5.245304
282	5.481767
281	5.493426
280	5.11918
279	4.555988
278	4.110002
277	3.728508
276	3.241419
275	2.811241
274	2.632737
273	2.493643
272	2.179336
271	1.910781
270	1.899528
269	1.908516
268	1.747727
267	1.661849
266	1.806807
265	1.910376
264	1.832485
263	1.830005
262	1.970386
261	1.949024
260	1.701903
259	1.54283
258	1.546359
257	1.453948
256	1.244735
255	1.178956
254	1.260066
253	1.244688
252	1.139283
251	1.155209
250	1.267528
249	1.292657
248	1.266932
247	1.353883
246	1.522946
245	1.634669
244	1.697325
243	1.798176
242	1.907563
241	1.90947
240	1.773166
239	1.594924
238	1.478409
237	1.407217
236	1.305747
235	1.213526
234	1.237654
233	1.31998
232	1.305747
231	1.253604
230	1.341724
229	1.484394
228	1.457238
227	1.350545
226	1.403045
225	1.501035
224	1.409387
223	1.304841
222	1.453495
221	1.64361
220	1.588678
219	1.510763
218	1.666545
217	1.785945
216	1.627731
215	1.50249
214	1.636195
213	1.684212
212	1.444959
211	1.294159
210	1.419067
209	1.443147
208	1.216053
207	1.111388
206	1.237297
205	1.227068
204	1.014161
203	0.952792
202	1.073145
201	1.03116
200	0.819492
