1.1640E+02	0.0000E+00
1.1688E+02	1.8114E+01
1.1736E+02	3.0350E+01
1.1784E+02	5.0998E+01
1.1832E+02	8.2389E+01
1.1881E+02	8.5651E+01
1.1929E+02	8.1658E+01
1.1977E+02	8.6279E+01
1.2025E+02	8.3856E+01
1.2073E+02	7.3701E+01
1.2122E+02	5.2737E+01
1.2170E+02	2.6816E+01
1.2218E+02	2.0964E+00
1.2266E+02	1.5444E+01
1.2315E+02	2.4601E+01
1.2363E+02	2.8170E+01
1.2411E+02	3.0030E+01
1.2459E+02	2.9236E+01
1.2507E+02	2.1631E+01
1.2556E+02	2.2872E+00
1.2604E+02	2.5322E+01
1.2652E+02	5.5376E+01
1.2700E+02	8.5916E+01
1.2748E+02	1.1888E+02
1.2797E+02	1.5513E+02
1.2845E+02	1.9472E+02
1.2893E+02	2.4366E+02
1.2941E+02	3.0405E+02
1.2990E+02	3.7732E+02
1.3038E+02	4.6606E+02
1.3086E+02	5.6983E+02
1.3134E+02	6.9026E+02
1.3182E+02	8.3141E+02
1.3231E+02	9.9025E+02
1.3279E+02	1.1758E+03
1.3327E+02	1.4012E+03
1.3375E+02	1.6685E+03
1.3423E+02	1.9591E+03
1.3472E+02	2.2663E+03
1.3520E+02	2.5916E+03
1.3568E+02	2.9300E+03
1.3616E+02	3.2711E+03
1.3664E+02	3.6336E+03
1.3713E+02	4.0541E+03
1.3761E+02	4.5341E+03
1.3809E+02	5.0562E+03
1.3857E+02	5.5921E+03
1.3906E+02	6.1357E+03
1.3954E+02	6.7499E+03
1.4002E+02	7.4337E+03
1.4050E+02	8.1910E+03
1.4098E+02	9.0020E+03
1.4147E+02	9.8561E+03
1.4195E+02	1.0793E+04
1.4243E+02	1.1830E+04
1.4291E+02	1.2958E+04
1.4339E+02	1.4191E+04
1.4388E+02	1.5495E+04
1.4436E+02	1.6862E+04
1.4484E+02	1.8561E+04
1.4532E+02	2.0598E+04
1.4580E+02	2.2951E+04
1.4629E+02	2.5612E+04
1.4677E+02	2.8884E+04
1.4725E+02	3.2022E+04
1.4773E+02	3.4788E+04
1.4822E+02	3.7069E+04
1.4870E+02	3.9596E+04
1.4918E+02	4.2399E+04
1.4966E+02	4.5448E+04
1.5014E+02	4.8672E+04
1.5063E+02	5.2952E+04
1.5111E+02	5.6579E+04
1.5159E+02	5.9043E+04
1.5207E+02	6.0006E+04
1.5255E+02	6.0530E+04
1.5304E+02	6.1082E+04
1.5352E+02	6.1221E+04
1.5400E+02	6.0089E+04
1.5448E+02	5.7051E+04
1.5497E+02	5.3086E+04
1.5545E+02	4.8546E+04
1.5593E+02	4.3106E+04
1.5641E+02	3.7677E+04
1.5689E+02	3.2118E+04
1.5738E+02	2.6614E+04
1.5786E+02	2.1723E+04
1.5834E+02	1.7563E+04
1.5882E+02	1.4102E+04
1.5930E+02	1.1275E+04
1.5979E+02	9.3144E+03
1.6027E+02	7.7501E+03
1.6075E+02	6.5094E+03
1.6123E+02	5.5645E+03
1.6171E+02	4.7927E+03
1.6220E+02	4.2051E+03
1.6268E+02	3.7375E+03
1.6316E+02	3.3344E+03
1.6364E+02	2.9972E+03
1.6413E+02	2.6989E+03
1.6461E+02	2.4258E+03
1.6509E+02	2.1774E+03
1.6557E+02	1.9603E+03
1.6605E+02	1.7878E+03
1.6654E+02	1.6474E+03
1.6702E+02	1.5206E+03
1.6750E+02	1.3991E+03
1.6798E+02	1.2875E+03
1.6846E+02	1.1882E+03
1.6895E+02	1.1011E+03
1.6943E+02	1.0284E+03
1.6991E+02	9.7483E+02
1.7039E+02	9.3733E+02
1.7088E+02	9.0780E+02
1.7136E+02	8.8544E+02
1.7184E+02	8.6798E+02
1.7232E+02	8.5149E+02
1.7280E+02	8.3363E+02
1.7329E+02	8.2341E+02
1.7377E+02	8.2945E+02
1.7425E+02	8.4466E+02
1.7473E+02	8.6963E+02
1.7521E+02	9.0143E+02
1.7570E+02	9.4106E+02
1.7618E+02	9.8721E+02
1.7666E+02	1.0333E+03
1.7714E+02	1.0964E+03
1.7762E+02	1.1939E+03
1.7811E+02	1.3251E+03
1.7859E+02	1.4917E+03
1.7907E+02	1.7037E+03
1.7955E+02	1.9491E+03
1.8004E+02	2.2018E+03
1.8052E+02	2.4597E+03
1.8100E+02	2.7157E+03
1.8148E+02	2.9573E+03
1.8196E+02	3.1862E+03
1.8245E+02	3.3896E+03
1.8293E+02	3.5540E+03
1.8341E+02	3.6841E+03
1.8389E+02	3.8052E+03
1.8437E+02	3.9490E+03
1.8486E+02	4.0779E+03
1.8534E+02	4.1081E+03
1.8582E+02	4.0396E+03
1.8630E+02	3.8756E+03
1.8678E+02	3.5838E+03
1.8727E+02	3.1787E+03
1.8775E+02	2.7619E+03
1.8823E+02	2.3423E+03
1.8871E+02	1.9386E+03
1.8920E+02	1.6152E+03
1.8968E+02	1.3782E+03
1.9016E+02	1.2048E+03
1.9064E+02	1.0731E+03
1.9112E+02	9.8350E+02
1.9161E+02	9.2438E+02
1.9209E+02	8.9907E+02
1.9257E+02	9.0440E+02
1.9305E+02	9.1561E+02
1.9353E+02	9.3530E+02
1.9402E+02	9.5407E+02
1.9450E+02	9.5381E+02
1.9498E+02	9.3318E+02
1.9546E+02	9.1394E+02
1.9595E+02	8.9551E+02
1.9643E+02	8.7831E+02
1.9691E+02	9.0451E+02
1.9739E+02	9.7621E+02
1.9787E+02	1.0901E+03
1.9836E+02	1.2393E+03
1.9884E+02	1.4232E+03
1.9932E+02	1.6488E+03
1.9980E+02	1.9119E+03
2.0028E+02	2.2076E+03
2.0077E+02	2.5662E+03
2.0125E+02	2.9727E+03
2.0173E+02	3.4579E+03
2.0221E+02	4.1182E+03
2.0269E+02	4.9820E+03
2.0318E+02	5.9122E+03
2.0366E+02	6.8546E+03
2.0414E+02	7.8124E+03
2.0462E+02	8.6883E+03
2.0511E+02	9.4292E+03
2.0559E+02	1.0101E+04
2.0607E+02	1.0903E+04
2.0655E+02	1.1818E+04
2.0703E+02	1.2911E+04
2.0752E+02	1.4252E+04
2.0800E+02	1.5842E+04
2.0848E+02	1.7549E+04
2.0896E+02	1.9321E+04
2.0944E+02	2.1198E+04
2.0993E+02	2.3329E+04
2.1041E+02	2.5603E+04
2.1089E+02	2.8362E+04
2.1137E+02	3.1736E+04
2.1185E+02	3.5616E+04
2.1234E+02	4.0679E+04
2.1282E+02	4.7562E+04
2.1330E+02	5.5886E+04
2.1378E+02	6.3027E+04
2.1427E+02	6.8926E+04
2.1475E+02	7.3755E+04
2.1523E+02	7.6822E+04
2.1571E+02	7.6232E+04
2.1619E+02	7.9258E+04
2.1668E+02	8.7301E+04
2.1716E+02	1.0027E+05
2.1764E+02	1.1781E+05
2.1812E+02	1.4614E+05
2.1860E+02	1.7050E+05
2.1909E+02	1.7547E+05
2.1957E+02	1.5490E+05
2.2005E+02	1.2885E+05
2.2053E+02	9.9233E+04
2.2102E+02	6.5416E+04
2.2150E+02	4.0387E+04
2.2198E+02	2.5996E+04
2.2246E+02	1.8063E+04
2.2294E+02	1.2356E+04
2.2343E+02	9.5409E+03
2.2391E+02	7.5776E+03
2.2439E+02	6.1518E+03
2.2487E+02	5.2729E+03
2.2535E+02	4.5651E+03
2.2584E+02	4.0555E+03
2.2632E+02	3.6853E+03
2.2680E+02	3.3822E+03
2.2728E+02	3.1573E+03
2.2776E+02	2.9831E+03
2.2825E+02	2.8562E+03
2.2873E+02	2.7794E+03
2.2921E+02	2.7332E+03
2.2969E+02	2.7266E+03
2.3018E+02	2.7441E+03
2.3066E+02	2.7662E+03
2.3114E+02	2.7894E+03
2.3162E+02	2.8234E+03
2.3210E+02	2.8736E+03
2.3259E+02	2.9440E+03
2.3307E+02	3.0088E+03
2.3355E+02	3.0690E+03
2.3403E+02	3.1228E+03
2.3451E+02	3.1684E+03
2.3500E+02	3.2079E+03
2.3548E+02	3.2351E+03
2.3596E+02	3.2476E+03
2.3644E+02	3.2445E+03
2.3693E+02	3.2295E+03
2.3741E+02	3.1905E+03
2.3789E+02	3.1471E+03
2.3837E+02	3.1277E+03
2.3885E+02	3.1270E+03
2.3934E+02	3.1591E+03
2.3982E+02	3.2322E+03
2.4030E+02	3.3553E+03
2.4078E+02	3.4827E+03
2.4126E+02	3.5989E+03
2.4175E+02	3.7303E+03
2.4223E+02	3.9259E+03
2.4271E+02	4.2090E+03
2.4319E+02	4.5193E+03
2.4367E+02	4.8540E+03
2.4416E+02	5.2506E+03
2.4464E+02	5.5487E+03
2.4512E+02	5.7537E+03
2.4560E+02	5.8576E+03
2.4609E+02	5.8315E+03
2.4657E+02	5.6143E+03
2.4705E+02	5.3714E+03
2.4753E+02	5.1746E+03
2.4801E+02	5.0717E+03
2.4850E+02	4.8505E+03
2.4898E+02	4.4987E+03
2.4946E+02	4.0357E+03
2.4994E+02	3.4880E+03
2.5042E+02	2.7772E+03
2.5091E+02	2.1145E+03
2.5139E+02	1.5760E+03
2.5187E+02	1.1773E+03
2.5235E+02	8.4922E+02
2.5283E+02	6.0116E+02
2.5332E+02	4.1787E+02
2.5380E+02	2.7725E+02
2.5428E+02	1.9341E+02
2.5476E+02	1.2810E+02
2.5525E+02	6.7584E+01
2.5573E+02	1.0503E+01
2.5621E+02	3.4225E+01
2.5669E+02	6.4186E+01
2.5717E+02	8.2921E+01
2.5766E+02	9.6623E+01
2.5814E+02	1.0415E+02
2.5862E+02	1.0909E+02
2.5910E+02	1.1319E+02
2.5958E+02	1.1705E+02
2.6007E+02	1.1659E+02
2.6055E+02	1.0935E+02
2.6103E+02	9.9627E+01
2.6151E+02	9.6228E+01
2.6200E+02	1.0228E+02
2.6248E+02	1.0711E+02
2.6296E+02	1.0603E+02
2.6344E+02	9.7687E+01
2.6392E+02	9.0042E+01
2.6441E+02	8.3361E+01
2.6489E+02	7.7104E+01
2.6537E+02	6.9922E+01
2.6585E+02	6.0946E+01
2.6633E+02	5.3508E+01
2.6682E+02	4.9756E+01
2.6730E+02	5.0712E+01
2.6778E+02	4.8281E+01
2.6826E+02	4.1130E+01
2.6874E+02	3.2033E+01
2.6923E+02	2.6585E+01
2.6971E+02	2.6466E+01
2.7019E+02	2.3941E+01
2.7067E+02	1.3468E+01
2.7116E+02	6.7720E+00
2.7164E+02	1.5269E+01
2.7212E+02	7.8154E+00
2.7260E+02	5.2974E+00
2.7308E+02	5.1164E+00
2.7357E+02	1.1735E+01
2.7405E+02	2.5901E+01
2.7453E+02	2.7628E+01
2.7501E+02	1.6086E+01
2.7549E+02	1.0633E+01
2.7598E+02	1.2763E+01
2.7646E+02	1.9031E+01
2.7694E+02	2.4721E+01
2.7742E+02	2.9553E+01
2.7790E+02	3.2847E+01
2.7839E+02	3.3836E+01
2.7887E+02	3.2894E+01
2.7935E+02	3.3810E+01
2.7983E+02	3.6551E+01
2.8032E+02	4.0742E+01
2.8080E+02	4.6220E+01
2.8128E+02	5.3008E+01
2.8176E+02	6.0165E+01
2.8224E+02	6.7986E+01
2.8273E+02	7.6326E+01
2.8321E+02	8.2618E+01
2.8369E+02	8.6186E+01
2.8417E+02	8.9378E+01
2.8465E+02	9.5130E+01
2.8514E+02	1.0343E+02
2.8562E+02	1.1252E+02
2.8610E+02	1.2125E+02
2.8658E+02	1.3012E+02
2.8707E+02	1.4246E+02
2.8755E+02	1.5919E+02
2.8803E+02	1.7606E+02
2.8851E+02	1.8754E+02
2.8899E+02	1.9371E+02
2.8948E+02	1.9889E+02
2.8996E+02	2.0272E+02
2.9044E+02	2.0755E+02
2.9092E+02	2.2038E+02
2.9140E+02	2.4125E+02
2.9189E+02	2.6407E+02
2.9237E+02	2.8431E+02
2.9285E+02	3.0226E+02
2.9333E+02	3.1763E+02
2.9381E+02	3.2823E+02
2.9430E+02	3.3689E+02
2.9478E+02	3.5129E+02
2.9526E+02	3.7174E+02
2.9574E+02	3.9093E+02
2.9623E+02	3.9872E+02
2.9671E+02	3.9964E+02
2.9719E+02	4.0722E+02
2.9767E+02	4.3014E+02
2.9815E+02	4.5776E+02
2.9864E+02	4.7344E+02
2.9912E+02	4.7780E+02
2.9960E+02	4.7838E+02
3.0008E+02	4.7874E+02
3.0056E+02	4.7961E+02
3.0105E+02	4.8300E+02
3.0153E+02	4.9222E+02
3.0201E+02	5.0084E+02
3.0249E+02	5.0061E+02
3.0298E+02	4.9253E+02
3.0346E+02	4.8287E+02
3.0394E+02	4.7380E+02
3.0442E+02	4.6627E+02
3.0490E+02	4.6181E+02
3.0539E+02	4.6291E+02
3.0587E+02	4.6483E+02
3.0635E+02	4.6207E+02
3.0683E+02	4.5625E+02
3.0731E+02	4.5297E+02
3.0780E+02	4.5795E+02
3.0828E+02	4.6604E+02
3.0876E+02	4.7181E+02
3.0924E+02	4.7265E+02
3.0972E+02	4.7426E+02
3.1021E+02	4.8312E+02
3.1069E+02	4.9595E+02
3.1117E+02	5.0435E+02
3.1165E+02	4.9933E+02
3.1214E+02	4.9134E+02
3.1262E+02	4.8845E+02
3.1310E+02	4.9360E+02
3.1358E+02	4.9925E+02
3.1406E+02	5.0193E+02
3.1455E+02	5.0142E+02
3.1503E+02	4.9829E+02
3.1551E+02	4.9024E+02
3.1599E+02	4.8202E+02
3.1647E+02	4.7685E+02
3.1696E+02	4.7628E+02
3.1744E+02	4.7397E+02
3.1792E+02	4.6705E+02
3.1840E+02	4.5800E+02
3.1888E+02	4.4986E+02
3.1937E+02	4.4488E+02
3.1985E+02	4.3842E+02
3.2033E+02	4.2899E+02
3.2081E+02	4.1660E+02
3.2130E+02	4.0325E+02
3.2178E+02	3.8937E+02
3.2226E+02	3.7450E+02
3.2274E+02	3.5819E+02
3.2322E+02	3.3718E+02
3.2371E+02	3.1816E+02
3.2419E+02	3.0372E+02
3.2467E+02	2.9426E+02
3.2515E+02	2.8194E+02
3.2563E+02	2.6187E+02
3.2612E+02	2.4177E+02
3.2660E+02	2.2764E+02
3.2708E+02	2.2586E+02
3.2756E+02	2.2181E+02
3.2805E+02	2.1320E+02
3.2853E+02	2.0074E+02
3.2901E+02	1.9040E+02
3.2949E+02	1.8492E+02
3.2997E+02	1.7722E+02
3.3046E+02	1.6183E+02
3.3094E+02	1.3013E+02
3.3142E+02	1.0921E+02
3.3190E+02	1.0504E+02
3.3238E+02	1.1297E+02
3.3287E+02	1.1135E+02
3.3335E+02	9.4257E+01
3.3383E+02	7.7402E+01
3.3431E+02	7.0694E+01
3.3479E+02	7.9569E+01
3.3528E+02	8.1202E+01
3.3576E+02	7.1948E+01
3.3624E+02	5.6033E+01
3.3672E+02	4.3965E+01
3.3721E+02	3.6668E+01
3.3769E+02	3.1051E+01
3.3817E+02	2.6237E+01
3.3865E+02	2.2547E+01
3.3913E+02	1.7012E+01
3.3962E+02	8.8878E+00
3.4010E+02	3.2650E-03
3.4058E+02	6.3435E+00
3.4106E+02	1.0052E+01
3.4154E+02	1.3190E+01
3.4203E+02	1.6877E+01
3.4251E+02	2.0872E+01
3.4299E+02	2.2555E+01
3.4347E+02	2.1246E+01
3.4395E+02	2.0352E+01
3.4444E+02	2.6391E+01
3.4492E+02	3.8278E+01
3.4540E+02	4.5610E+01
3.4588E+02	4.1530E+01
3.4637E+02	3.1160E+01
3.4685E+02	2.9756E+01
3.4733E+02	3.7635E+01
3.4781E+02	4.5733E+01
3.4829E+02	4.3002E+01
3.4878E+02	3.3291E+01
3.4926E+02	2.8746E+01
3.4974E+02	3.5855E+01
3.5022E+02	4.6361E+01
3.5070E+02	4.7137E+01
3.5119E+02	3.9337E+01
3.5167E+02	3.2114E+01
3.5215E+02	3.3646E+01
3.5263E+02	3.9538E+01
3.5312E+02	4.2960E+01
3.5360E+02	4.1316E+01
3.5408E+02	3.8887E+01
3.5456E+02	4.0076E+01
3.5504E+02	4.3750E+01
3.5553E+02	4.6461E+01
3.5601E+02	4.6506E+01
3.5649E+02	4.4655E+01
3.5697E+02	4.1064E+01
3.5745E+02	3.5017E+01
3.5794E+02	2.9720E+01
3.5842E+02	2.7707E+01
3.5890E+02	2.7580E+01
3.5938E+02	2.6925E+01
3.5986E+02	2.4259E+01
3.6035E+02	2.1249E+01
3.6083E+02	1.9964E+01
3.6131E+02	2.1365E+01
3.6179E+02	1.8256E+01
3.6228E+02	4.7294E+00
3.6276E+02	1.3183E+01
3.6324E+02	2.9012E+01
3.6372E+02	3.9411E+01
3.6420E+02	4.9188E+01
3.6469E+02	6.0351E+01
3.6517E+02	7.3025E+01
3.6565E+02	8.2525E+01
3.6613E+02	8.5529E+01
3.6661E+02	8.7014E+01
3.6710E+02	9.0473E+01
3.6758E+02	1.0150E+02
3.6806E+02	1.0758E+02
3.6854E+02	1.0500E+02
3.6903E+02	9.5943E+01
3.6951E+02	9.1622E+01
3.6999E+02	9.5614E+01
3.7047E+02	1.0015E+02
3.7095E+02	1.0080E+02
3.7144E+02	9.2796E+01
3.7192E+02	9.2224E+01
3.7240E+02	1.0334E+02
3.7288E+02	1.2000E+02
3.7336E+02	1.2771E+02
3.7385E+02	1.2349E+02
3.7433E+02	1.1801E+02
3.7481E+02	1.1422E+02
3.7529E+02	1.1181E+02
3.7577E+02	1.1575E+02
3.7626E+02	1.2708E+02
3.7674E+02	1.4286E+02
3.7722E+02	1.6117E+02
3.7770E+02	1.8262E+02
3.7819E+02	1.9816E+02
3.7867E+02	2.0433E+02
3.7915E+02	2.0250E+02
3.7963E+02	1.9683E+02
3.8011E+02	1.8661E+02
3.8060E+02	1.7914E+02
3.8108E+02	1.8360E+02
3.8156E+02	1.9772E+02
3.8204E+02	2.0949E+02
3.8252E+02	2.1591E+02
3.8301E+02	2.1957E+02
3.8349E+02	2.2636E+02
3.8397E+02	2.3552E+02
3.8445E+02	2.4054E+02
3.8493E+02	2.3228E+02
3.8542E+02	2.1829E+02
3.8590E+02	2.1196E+02
3.8638E+02	2.1713E+02
3.8686E+02	2.2398E+02
3.8735E+02	2.2366E+02
3.8783E+02	2.1806E+02
3.8831E+02	2.1155E+02
3.8879E+02	2.0518E+02
3.8927E+02	1.9912E+02
3.8976E+02	1.9387E+02
3.9024E+02	1.8972E+02
3.9072E+02	1.8583E+02
3.9120E+02	1.7832E+02
3.9168E+02	1.7161E+02
3.9217E+02	1.7107E+02
3.9265E+02	1.8953E+02
3.9313E+02	2.0466E+02
3.9361E+02	2.0383E+02
3.9410E+02	1.8842E+02
3.9458E+02	1.7756E+02
3.9506E+02	1.7719E+02
3.9554E+02	1.8246E+02
3.9602E+02	1.9029E+02
3.9651E+02	2.0189E+02
3.9699E+02	2.1415E+02
3.9747E+02	2.2701E+02
3.9795E+02	2.4004E+02
3.9843E+02	2.5210E+02
3.9892E+02	2.6078E+02
3.9940E+02	2.7134E+02
3.9988E+02	2.8516E+02
4.0036E+02	3.0130E+02
4.0084E+02	3.2369E+02
4.0133E+02	3.5350E+02
4.0181E+02	3.8900E+02
4.0229E+02	4.2837E+02
4.0277E+02	4.7103E+02
4.0326E+02	5.1674E+02
4.0374E+02	5.6591E+02
4.0422E+02	6.1898E+02
4.0470E+02	6.7588E+02
4.0518E+02	7.3553E+02
4.0567E+02	8.0065E+02
4.0615E+02	8.7643E+02
4.0663E+02	9.6384E+02
4.0711E+02	1.0506E+03
4.0759E+02	1.1338E+03
4.0808E+02	1.2146E+03
4.0856E+02	1.2966E+03
4.0904E+02	1.3808E+03
4.0952E+02	1.4608E+03
4.1000E+02	1.5320E+03
4.1049E+02	1.5943E+03
4.1097E+02	1.6456E+03
4.1145E+02	1.6831E+03
4.1193E+02	1.7218E+03
4.1242E+02	1.7815E+03
4.1290E+02	1.8575E+03
4.1338E+02	1.9344E+03
4.1386E+02	1.9952E+03
4.1434E+02	2.0609E+03
4.1483E+02	2.1555E+03
4.1531E+02	2.2803E+03
4.1579E+02	2.4211E+03
4.1627E+02	2.5759E+03
4.1675E+02	2.7397E+03
4.1724E+02	2.9104E+03
4.1772E+02	3.0813E+03
4.1820E+02	3.2612E+03
4.1868E+02	3.4513E+03
4.1917E+02	3.6526E+03
4.1965E+02	3.8627E+03
4.2013E+02	4.0877E+03
4.2061E+02	4.3179E+03
4.2109E+02	4.5513E+03
4.2158E+02	4.7802E+03
4.2206E+02	5.0186E+03
4.2254E+02	5.2709E+03
4.2302E+02	5.5336E+03
4.2350E+02	5.8068E+03
4.2399E+02	6.0803E+03
4.2447E+02	6.3725E+03
4.2495E+02	6.7010E+03
4.2543E+02	7.0662E+03
4.2591E+02	7.4036E+03
4.2640E+02	7.6896E+03
4.2688E+02	7.9747E+03
4.2736E+02	8.3021E+03
4.2784E+02	8.6847E+03
4.2833E+02	9.0686E+03
4.2881E+02	9.4513E+03
4.2929E+02	9.8272E+03
4.2977E+02	1.0172E+04
4.3025E+02	1.0487E+04
4.3074E+02	1.0770E+04
4.3122E+02	1.1019E+04
4.3170E+02	1.1233E+04
4.3218E+02	1.1403E+04
4.3266E+02	1.1527E+04
4.3315E+02	1.1615E+04
4.3363E+02	1.1679E+04
4.3411E+02	1.1718E+04
4.3459E+02	1.1729E+04
4.3508E+02	1.1699E+04
4.3556E+02	1.1644E+04
4.3604E+02	1.1614E+04
4.3652E+02	1.1606E+04
4.3700E+02	1.1530E+04
4.3749E+02	1.1342E+04
4.3797E+02	1.1039E+04
4.3845E+02	1.0617E+04
4.3893E+02	1.0070E+04
4.3941E+02	9.4118E+03
4.3990E+02	8.6139E+03
4.4038E+02	7.7128E+03
4.4086E+02	6.7793E+03
4.4134E+02	5.7708E+03
4.4182E+02	4.8077E+03
4.4231E+02	3.9543E+03
4.4279E+02	3.2178E+03
4.4327E+02	2.5897E+03
4.4375E+02	2.0814E+03
4.4424E+02	1.6765E+03
4.4472E+02	1.3479E+03
4.4520E+02	1.1157E+03
4.4568E+02	9.3952E+02
4.4616E+02	8.2099E+02
4.4665E+02	7.5793E+02
4.4713E+02	7.2305E+02
4.4761E+02	7.1698E+02
4.4809E+02	7.3863E+02
4.4857E+02	7.8692E+02
4.4906E+02	8.6185E+02
4.4954E+02	9.6436E+02
4.5002E+02	1.0913E+03
4.5050E+02	1.2482E+03
4.5098E+02	1.4435E+03
4.5147E+02	1.6740E+03
4.5195E+02	1.9487E+03
4.5243E+02	2.2662E+03
4.5291E+02	2.6289E+03
4.5340E+02	3.0623E+03
4.5388E+02	3.5645E+03
4.5436E+02	4.1363E+03
4.5484E+02	4.7583E+03
4.5532E+02	5.4449E+03
4.5581E+02	6.2216E+03
4.5629E+02	7.0864E+03
4.5677E+02	8.0729E+03
4.5725E+02	9.2351E+03
4.5773E+02	1.0560E+04
4.5822E+02	1.2026E+04
4.5870E+02	1.3625E+04
4.5918E+02	1.5346E+04
4.5966E+02	1.7151E+04
4.6015E+02	1.9053E+04
4.6063E+02	2.1057E+04
4.6111E+02	2.3125E+04
4.6159E+02	2.5302E+04
4.6207E+02	2.7609E+04
4.6256E+02	2.9971E+04
4.6304E+02	3.2545E+04
4.6352E+02	3.5332E+04
4.6400E+02	3.8334E+04
4.6448E+02	4.1673E+04
4.6497E+02	4.5524E+04
4.6545E+02	4.9579E+04
4.6593E+02	5.3732E+04
4.6641E+02	5.8433E+04
4.6689E+02	6.2502E+04
4.6738E+02	6.5559E+04
4.6786E+02	6.8137E+04
4.6834E+02	7.1057E+04
4.6882E+02	7.4074E+04
4.6931E+02	7.7940E+04
4.6979E+02	8.3022E+04
4.7027E+02	8.9259E+04
4.7075E+02	9.5986E+04
4.7123E+02	1.0373E+05
4.7172E+02	1.1030E+05
4.7220E+02	1.1425E+05
4.7268E+02	1.1555E+05
4.7316E+02	1.1278E+05
4.7364E+02	1.0522E+05
4.7413E+02	9.4539E+04
4.7461E+02	8.2455E+04
4.7509E+02	6.9288E+04
4.7557E+02	5.7081E+04
4.7606E+02	4.6732E+04
4.7654E+02	3.8061E+04
4.7702E+02	3.1066E+04
4.7750E+02	2.5715E+04
4.7798E+02	2.1458E+04
4.7847E+02	1.8206E+04
4.7895E+02	1.5681E+04
4.7943E+02	1.3570E+04
4.7991E+02	1.1862E+04
4.8039E+02	1.0398E+04
4.8088E+02	9.1530E+03
4.8136E+02	8.1032E+03
4.8184E+02	7.1957E+03
4.8232E+02	6.4621E+03
4.8280E+02	5.8277E+03
4.8329E+02	5.2566E+03
4.8377E+02	4.7481E+03
4.8425E+02	4.2949E+03
4.8473E+02	3.9102E+03
4.8522E+02	3.5755E+03
4.8570E+02	3.2676E+03
4.8618E+02	2.9894E+03
4.8666E+02	2.7314E+03
4.8714E+02	2.4875E+03
4.8763E+02	2.2612E+03
4.8811E+02	2.0718E+03
4.8859E+02	1.9289E+03
4.8907E+02	1.7993E+03
4.8955E+02	1.6630E+03
4.9004E+02	1.5194E+03
4.9052E+02	1.3939E+03
4.9100E+02	1.2894E+03
4.9148E+02	1.1998E+03
4.9196E+02	1.1228E+03
4.9245E+02	1.0567E+03
4.9293E+02	9.9426E+02
4.9341E+02	9.3701E+02
4.9389E+02	8.8011E+02
4.9438E+02	8.1257E+02
4.9486E+02	7.3670E+02
4.9534E+02	6.7143E+02
4.9582E+02	6.3531E+02
4.9630E+02	6.1226E+02
4.9679E+02	5.8574E+02
4.9727E+02	5.5241E+02
4.9775E+02	5.1695E+02
4.9823E+02	4.8345E+02
4.9871E+02	4.4864E+02
4.9920E+02	4.0735E+02
4.9968E+02	3.4694E+02
5.0016E+02	2.9162E+02
5.0064E+02	2.5026E+02
5.0113E+02	2.2224E+02
5.0161E+02	1.9539E+02
5.0209E+02	1.7136E+02
5.0257E+02	1.4561E+02
5.0305E+02	1.1493E+02
5.0354E+02	7.3673E+01
5.0402E+02	4.1231E+01
5.0450E+02	1.8719E+01
5.0498E+02	4.8687E+00
5.0546E+02	9.5563E-01
5.0595E+02	3.2681E+00
5.0643E+02	3.0052E+00
5.0691E+02	8.3121E+00
5.0739E+02	2.6548E+01
5.0787E+02	3.3627E+01
5.0836E+02	2.9009E+01
5.0884E+02	2.4221E+01
5.0932E+02	3.0146E+01
5.0980E+02	4.2755E+01
5.1029E+02	5.1486E+01
5.1077E+02	5.5231E+01
5.1125E+02	5.3819E+01
5.1173E+02	4.3706E+01
5.1221E+02	2.8344E+01
5.1270E+02	1.5033E+01
5.1318E+02	3.6972E+00
5.1366E+02	1.6083E+00
5.1414E+02	6.6522E+00
5.1462E+02	2.5906E+01
5.1511E+02	3.8576E+01
5.1559E+02	3.0980E+01
5.1607E+02	1.9242E+01
5.1655E+02	1.3819E+01
5.1703E+02	2.1593E+01
5.1752E+02	2.4182E+01
5.1800E+02	1.4757E+01
5.1848E+02	1.0324E+00
5.1896E+02	6.8458E+00
5.1945E+02	4.3895E+00
5.1993E+02	3.5119E+00
5.2041E+02	8.2726E+00
5.2089E+02	1.7194E+01
5.2137E+02	1.8708E+01
5.2186E+02	1.0864E+01
5.2234E+02	2.0453E+00
5.2282E+02	1.9878E+00
5.2330E+02	1.4478E+00
5.2378E+02	1.8192E+00
5.2427E+02	3.3754E+00
5.2475E+02	6.2554E+00
5.2523E+02	1.0824E+01
5.2571E+02	1.7069E+01
5.2620E+02	2.5134E+01
5.2668E+02	3.8772E+01
5.2716E+02	5.1085E+01
5.2764E+02	5.1094E+01
5.2812E+02	4.1442E+01
5.2861E+02	3.3858E+01
5.2909E+02	3.7151E+01
5.2957E+02	4.3632E+01
5.3005E+02	4.7325E+01
5.3053E+02	4.6909E+01
5.3102E+02	4.6618E+01
5.3150E+02	4.7941E+01
5.3198E+02	5.0002E+01
5.3246E+02	5.2036E+01
5.3294E+02	5.6328E+01
5.3343E+02	5.7998E+01
5.3391E+02	5.6643E+01
5.3439E+02	5.2196E+01
5.3487E+02	4.3469E+01
5.3536E+02	2.6255E+01
5.3584E+02	1.2520E+01
5.3632E+02	1.0296E+01
5.3680E+02	2.0738E+01
5.3728E+02	1.9117E+01
5.3777E+02	3.2941E+00
5.3825E+02	1.7481E+01
5.3873E+02	3.5081E+01
5.3921E+02	4.9517E+01
5.3969E+02	5.9345E+01
5.4018E+02	6.2733E+01
5.4066E+02	6.4028E+01
5.4114E+02	6.9384E+01
5.4162E+02	7.7920E+01
5.4211E+02	8.6379E+01
5.4259E+02	9.3289E+01
5.4307E+02	9.9165E+01
5.4355E+02	1.0407E+02
5.4403E+02	1.0805E+02
5.4452E+02	1.1240E+02
5.4500E+02	1.1853E+02
5.4548E+02	1.2481E+02
5.4596E+02	1.2991E+02
5.4644E+02	1.3283E+02
5.4693E+02	1.3567E+02
5.4741E+02	1.3929E+02
5.4789E+02	1.4288E+02
5.4837E+02	1.4501E+02
5.4885E+02	1.4521E+02
5.4934E+02	1.4462E+02
5.4982E+02	1.4306E+02
5.5030E+02	1.4074E+02
5.5078E+02	1.4090E+02
5.5127E+02	1.4491E+02
5.5175E+02	1.4678E+02
5.5223E+02	1.4043E+02
5.5271E+02	1.2688E+02
5.5319E+02	1.1753E+02
5.5368E+02	1.1393E+02
5.5416E+02	1.1176E+02
5.5464E+02	1.0569E+02
5.5512E+02	9.6671E+01
5.5560E+02	8.7712E+01
5.5609E+02	7.9494E+01
5.5657E+02	7.1960E+01
5.5705E+02	6.5113E+01
5.5753E+02	5.8968E+01
5.5801E+02	5.3793E+01
5.5850E+02	5.0009E+01
5.5898E+02	4.6977E+01
5.5946E+02	4.4571E+01
5.5994E+02	4.2986E+01
5.6043E+02	4.1035E+01
5.6091E+02	3.9284E+01
5.6139E+02	3.6623E+01
5.6187E+02	3.1813E+01
5.6235E+02	2.1598E+01
5.6284E+02	1.4859E+01
5.6332E+02	1.3268E+01
5.6380E+02	1.5161E+01
5.6428E+02	1.6412E+01
5.6476E+02	1.6800E+01
5.6525E+02	1.6811E+01
5.6573E+02	1.6739E+01
5.6621E+02	1.6999E+01
5.6669E+02	1.8611E+01
5.6718E+02	2.1388E+01
5.6766E+02	2.3594E+01
5.6814E+02	2.4256E+01
5.6862E+02	2.3656E+01
5.6910E+02	2.1737E+01
5.6959E+02	1.8125E+01
5.7007E+02	1.6057E+01
5.7055E+02	1.8416E+01
5.7103E+02	2.3625E+01
5.7151E+02	2.9206E+01
5.7200E+02	3.5696E+01
5.7248E+02	4.0258E+01
5.7296E+02	4.1344E+01
5.7344E+02	4.0149E+01
5.7392E+02	3.9474E+01
5.7441E+02	3.9877E+01
5.7489E+02	3.9966E+01
5.7537E+02	3.8948E+01
5.7585E+02	3.6369E+01
5.7634E+02	3.8081E+01
5.7682E+02	4.5541E+01
5.7730E+02	5.4414E+01
5.7778E+02	6.0618E+01
5.7826E+02	6.3898E+01
5.7875E+02	6.7249E+01
5.7923E+02	7.1270E+01
5.7971E+02	7.5246E+01
5.8019E+02	7.7662E+01
5.8067E+02	7.8667E+01
5.8116E+02	7.9558E+01
5.8164E+02	8.1382E+01
5.8212E+02	8.3044E+01
5.8260E+02	8.2458E+01
5.8308E+02	7.9922E+01
5.8357E+02	7.8081E+01
5.8405E+02	7.8871E+01
5.8453E+02	8.0342E+01
5.8501E+02	8.1441E+01
5.8550E+02	8.2870E+01
5.8598E+02	8.3938E+01
5.8646E+02	8.4201E+01
5.8694E+02	8.3365E+01
5.8742E+02	8.1520E+01
5.8791E+02	7.9084E+01
5.8839E+02	7.5287E+01
5.8887E+02	6.8113E+01
5.8935E+02	5.9941E+01
5.8983E+02	5.9015E+01
5.9032E+02	6.7348E+01
5.9080E+02	7.5206E+01
5.9128E+02	7.9239E+01
5.9176E+02	7.9695E+01
5.9225E+02	7.5225E+01
5.9273E+02	6.5832E+01
5.9321E+02	5.7843E+01
5.9369E+02	5.6699E+01
5.9417E+02	5.9570E+01
5.9466E+02	6.1956E+01
5.9514E+02	6.4117E+01
5.9562E+02	6.5717E+01
5.9610E+02	6.4101E+01
5.9658E+02	6.1332E+01
5.9707E+02	6.1040E+01
5.9755E+02	6.7208E+01
5.9803E+02	7.3218E+01
5.9851E+02	7.6987E+01
5.9899E+02	7.8858E+01
5.9948E+02	8.0483E+01
5.9996E+02	8.2299E+01
6.0044E+02	8.3504E+01
6.0092E+02	8.3658E+01
6.0141E+02	8.2659E+01
6.0189E+02	8.1826E+01
6.0237E+02	8.0650E+01
6.0285E+02	8.0946E+01
6.0333E+02	8.5093E+01
6.0382E+02	9.2753E+01
6.0430E+02	9.9081E+01
6.0478E+02	1.0323E+02
6.0526E+02	1.0691E+02
6.0574E+02	1.1241E+02
6.0623E+02	1.1922E+02
6.0671E+02	1.2569E+02
6.0719E+02	1.3079E+02
6.0767E+02	1.3590E+02
6.0816E+02	1.4290E+02
6.0864E+02	1.5098E+02
6.0912E+02	1.5762E+02
6.0960E+02	1.6041E+02
6.1008E+02	1.6270E+02
6.1057E+02	1.6540E+02
6.1105E+02	1.6826E+02
6.1153E+02	1.7436E+02
6.1201E+02	1.8762E+02
6.1249E+02	2.0021E+02
6.1298E+02	2.0619E+02
6.1346E+02	2.0299E+02
6.1394E+02	2.0243E+02
6.1442E+02	2.0525E+02
6.1490E+02	2.1033E+02
6.1539E+02	2.1713E+02
6.1587E+02	2.2540E+02
6.1635E+02	2.3131E+02
6.1683E+02	2.3325E+02
6.1732E+02	2.3298E+02
6.1780E+02	2.3246E+02
6.1828E+02	2.3188E+02
6.1876E+02	2.3199E+02
6.1924E+02	2.3369E+02
6.1973E+02	2.3572E+02
6.2021E+02	2.3794E+02
6.2069E+02	2.4037E+02
6.2117E+02	2.3989E+02
6.2165E+02	2.3369E+02
6.2214E+02	2.2562E+02
6.2262E+02	2.1817E+02
6.2310E+02	2.1206E+02
6.2358E+02	2.0524E+02
6.2406E+02	1.9740E+02
6.2455E+02	1.8923E+02
6.2503E+02	1.8131E+02
6.2551E+02	1.7341E+02
6.2599E+02	1.6685E+02
6.2648E+02	1.6203E+02
6.2696E+02	1.5837E+02
6.2744E+02	1.5550E+02
6.2792E+02	1.5320E+02
6.2840E+02	1.4953E+02
6.2889E+02	1.4261E+02
6.2937E+02	1.3429E+02
6.2985E+02	1.2734E+02
6.3033E+02	1.2147E+02
6.3081E+02	1.1482E+02
6.3130E+02	1.0482E+02
6.3178E+02	9.4672E+01
6.3226E+02	8.6404E+01
6.3274E+02	8.0063E+01
6.3323E+02	7.6414E+01
6.3371E+02	7.6820E+01
6.3419E+02	7.9360E+01
6.3467E+02	8.3112E+01
6.3515E+02	9.1249E+01
6.3564E+02	9.2784E+01
6.3612E+02	8.3831E+01
6.3660E+02	7.1018E+01
6.3708E+02	6.7577E+01
6.3756E+02	7.3949E+01
6.3805E+02	7.9132E+01
6.3853E+02	7.8749E+01
6.3901E+02	7.5700E+01
6.3949E+02	7.6120E+01
6.3997E+02	7.9442E+01
6.4046E+02	8.2324E+01
6.4094E+02	8.2420E+01
6.4142E+02	8.1368E+01
6.4190E+02	7.9690E+01
6.4239E+02	7.7453E+01
6.4287E+02	7.8452E+01
6.4335E+02	8.7934E+01
6.4383E+02	9.8684E+01
6.4431E+02	1.0567E+02
6.4480E+02	1.0576E+02
6.4528E+02	1.0670E+02
6.4576E+02	1.0765E+02
6.4624E+02	1.1014E+02
6.4672E+02	1.1732E+02
6.4721E+02	1.3085E+02
6.4769E+02	1.3976E+02
6.4817E+02	1.4116E+02
6.4865E+02	1.3851E+02
6.4913E+02	1.3827E+02
6.4962E+02	1.4019E+02
6.5010E+02	1.4288E+02
6.5058E+02	1.4623E+02
6.5106E+02	1.4956E+02
6.5155E+02	1.5233E+02
6.5203E+02	1.5456E+02
6.5251E+02	1.5596E+02
6.5299E+02	1.5601E+02
6.5347E+02	1.5546E+02
6.5396E+02	1.5411E+02
6.5444E+02	1.5140E+02
6.5492E+02	1.5138E+02
6.5540E+02	1.5898E+02
6.5588E+02	1.6590E+02
6.5637E+02	1.6601E+02
6.5685E+02	1.5622E+02
6.5733E+02	1.4890E+02
6.5781E+02	1.4506E+02
6.5830E+02	1.4263E+02
6.5878E+02	1.3860E+02
6.5926E+02	1.3311E+02
6.5974E+02	1.2795E+02
6.6022E+02	1.2327E+02
6.6071E+02	1.1965E+02
6.6119E+02	1.1911E+02
6.6167E+02	1.2053E+02
6.6215E+02	1.2070E+02
6.6263E+02	1.1733E+02
6.6312E+02	1.1286E+02
6.6360E+02	1.0833E+02
6.6408E+02	1.0389E+02
6.6456E+02	1.0016E+02
6.6504E+02	9.6153E+01
6.6553E+02	9.4053E+01
6.6601E+02	9.5960E+01
6.6649E+02	1.0316E+02
6.6697E+02	1.0386E+02
6.6746E+02	9.5113E+01
6.6794E+02	8.5738E+01
6.6842E+02	8.3601E+01
6.6890E+02	8.8451E+01
6.6938E+02	9.2512E+01
6.6987E+02	9.5129E+01
6.7035E+02	9.6651E+01
6.7083E+02	9.8182E+01
6.7131E+02	9.8894E+01
6.7179E+02	9.6477E+01
6.7228E+02	8.7636E+01
6.7276E+02	7.9633E+01
6.7324E+02	7.7335E+01
6.7372E+02	7.9288E+01
6.7421E+02	8.2508E+01
6.7469E+02	8.8003E+01
6.7517E+02	9.2640E+01
6.7565E+02	9.6189E+01
6.7613E+02	9.8412E+01
6.7662E+02	9.7089E+01
6.7710E+02	8.9645E+01
6.7758E+02	8.4606E+01
6.7806E+02	8.6865E+01
6.7854E+02	9.5833E+01
6.7903E+02	1.0183E+02
6.7951E+02	1.0496E+02
6.7999E+02	1.0633E+02
6.8047E+02	1.0573E+02
6.8095E+02	1.0429E+02
6.8144E+02	1.0464E+02
6.8192E+02	1.0751E+02
6.8240E+02	1.0897E+02
6.8288E+02	1.0496E+02
6.8337E+02	9.8446E+01
6.8385E+02	9.2484E+01
6.8433E+02	8.7891E+01
6.8481E+02	8.3989E+01
6.8529E+02	7.9406E+01
6.8578E+02	7.6056E+01
6.8626E+02	7.7366E+01
6.8674E+02	8.6425E+01
6.8722E+02	9.1678E+01
6.8770E+02	9.0752E+01
6.8819E+02	8.5351E+01
6.8867E+02	7.7710E+01
6.8915E+02	6.7912E+01
6.8963E+02	5.8942E+01
6.9011E+02	5.1839E+01
6.9060E+02	4.6453E+01
6.9108E+02	4.3169E+01
6.9156E+02	4.1615E+01
6.9204E+02	3.9979E+01
6.9253E+02	3.6418E+01
6.9301E+02	3.2888E+01
6.9349E+02	3.0685E+01
6.9397E+02	3.0072E+01
6.9445E+02	3.0549E+01
6.9494E+02	3.4557E+01
6.9542E+02	3.7324E+01
6.9590E+02	3.5444E+01
6.9638E+02	2.6863E+01
6.9686E+02	2.2969E+01
6.9735E+02	2.4784E+01
6.9783E+02	2.8957E+01
6.9831E+02	3.1510E+01
6.9879E+02	3.3135E+01
6.9928E+02	3.8039E+01
6.9976E+02	4.8055E+01
7.0024E+02	5.6933E+01
7.0072E+02	5.6514E+01
7.0120E+02	5.1138E+01
7.0169E+02	4.8005E+01
7.0217E+02	5.1712E+01
7.0265E+02	5.5893E+01
7.0313E+02	5.8097E+01
7.0361E+02	5.8930E+01
7.0410E+02	6.0144E+01
7.0458E+02	6.2621E+01
7.0506E+02	6.4392E+01
7.0554E+02	6.4190E+01
7.0602E+02	6.2960E+01
7.0651E+02	6.6155E+01
7.0699E+02	7.4681E+01
7.0747E+02	8.1593E+01
7.0795E+02	8.2172E+01
7.0844E+02	7.8425E+01
7.0892E+02	7.5079E+01
7.0940E+02	7.2151E+01
7.0988E+02	7.0376E+01
7.1036E+02	7.2751E+01
7.1085E+02	7.5326E+01
7.1133E+02	7.3628E+01
7.1181E+02	6.6423E+01
7.1229E+02	6.1995E+01
7.1277E+02	6.5839E+01
7.1326E+02	7.0245E+01
7.1374E+02	6.9916E+01
7.1422E+02	6.2627E+01
7.1470E+02	5.8528E+01
7.1518E+02	5.8588E+01
7.1567E+02	5.8912E+01
7.1615E+02	5.4269E+01
7.1663E+02	4.5919E+01
7.1711E+02	4.2586E+01
7.1760E+02	4.6127E+01
7.1808E+02	5.1365E+01
7.1856E+02	5.3754E+01
7.1904E+02	5.3566E+01
7.1952E+02	5.0949E+01
7.2001E+02	4.3063E+01
7.2049E+02	3.6548E+01
7.2097E+02	3.5302E+01
7.2145E+02	3.7506E+01
7.2193E+02	3.9084E+01
7.2242E+02	4.0088E+01
7.2290E+02	3.9559E+01
7.2338E+02	3.6601E+01
7.2386E+02	3.1693E+01
7.2435E+02	2.7519E+01
7.2483E+02	2.4477E+01
7.2531E+02	2.2216E+01
7.2579E+02	2.0597E+01
7.2627E+02	1.9296E+01
7.2676E+02	1.9383E+01
7.2724E+02	2.0638E+01
7.2772E+02	2.0164E+01
7.2820E+02	1.3001E+01
7.2868E+02	5.5688E+00
7.2917E+02	4.2119E+00
7.2965E+02	9.5164E+00
7.3013E+02	1.2689E+01
7.3061E+02	7.9212E+00
7.3109E+02	3.0663E+00
7.3158E+02	2.6969E+00
7.3206E+02	8.2509E+00
7.3254E+02	1.2253E+01
7.3302E+02	1.4381E+01
7.3351E+02	1.5682E+01
7.3399E+02	1.8486E+01
7.3447E+02	2.1970E+01
7.3495E+02	1.7935E+01
7.3543E+02	3.9174E+00
7.3592E+02	8.2747E+00
7.3640E+02	2.5905E+00
7.3688E+02	1.1391E+01
7.3736E+02	1.9359E+01
7.3784E+02	1.5261E+01
7.3833E+02	9.0332E+00
7.3881E+02	2.3485E+00
7.3929E+02	3.5303E+00
7.3977E+02	6.6663E+00
7.4026E+02	6.5929E+00
7.4074E+02	4.5776E+00
7.4122E+02	4.1008E-02
7.4170E+02	5.8576E+00
7.4218E+02	9.8822E+00
7.4267E+02	1.2079E+01
7.4315E+02	1.4163E+01
7.4363E+02	1.7828E+01
7.4411E+02	2.0281E+01
7.4459E+02	1.4866E+01
7.4508E+02	4.1881E+00
7.4556E+02	3.8209E+00
7.4604E+02	3.2310E+00
7.4652E+02	6.8322E-01
7.4700E+02	7.5234E-01
7.4749E+02	1.1026E+00
7.4797E+02	1.0471E+00
7.4845E+02	4.5375E-01
7.4893E+02	3.1794E-01
7.4942E+02	1.7556E+00
7.4990E+02	3.5658E+00
7.5038E+02	1.3160E+00
7.5086E+02	5.7107E+00
7.5134E+02	1.1196E+01
7.5183E+02	9.4738E+00
7.5231E+02	3.6046E+00
7.5279E+02	1.2801E+00
7.5327E+02	2.4864E+00
7.5375E+02	3.2454E+00
7.5424E+02	8.0261E-01
7.5472E+02	5.2204E+00
7.5520E+02	5.9062E+00
7.5568E+02	1.5851E+00
7.5616E+02	1.4607E+00
7.5665E+02	4.9469E-02
7.5713E+02	9.9566E-01
7.5761E+02	2.1045E+00
7.5809E+02	1.1516E+01
7.5858E+02	1.4733E+01
7.5906E+02	1.0681E+01
7.5954E+02	4.1014E+00
7.6002E+02	1.0606E+00
7.6050E+02	4.7452E+00
7.6099E+02	6.1528E+00
7.6147E+02	4.7488E+00
7.6195E+02	3.3218E+00
7.6243E+02	4.7704E+00
7.6291E+02	7.1418E+00
7.6340E+02	8.0040E+00
7.6388E+02	4.6751E+00
7.6436E+02	3.2535E+00
7.6484E+02	7.0120E+00
7.6533E+02	1.1883E+01
7.6581E+02	1.3143E+01
7.6629E+02	9.9348E+00
7.6677E+02	6.1583E+00
7.6725E+02	1.6617E+00
7.6774E+02	1.8580E+00
7.6822E+02	6.7996E-01
7.6870E+02	4.2062E+00
7.6918E+02	8.8466E+00
7.6966E+02	1.2893E+01
7.7015E+02	1.4778E+01
7.7063E+02	1.0130E+01
7.7111E+02	2.7363E+00
7.7159E+02	7.5485E-02
7.7207E+02	1.1136E+01
7.7256E+02	1.8723E+01
7.7304E+02	1.4930E+01
7.7352E+02	5.3631E+00
7.7400E+02	5.7230E+00
7.7449E+02	1.9972E+01
7.7497E+02	2.8954E+01
7.7545E+02	2.5341E+01
7.7593E+02	1.4205E+01
7.7641E+02	7.0209E+00
7.7690E+02	3.5938E+00
7.7738E+02	2.5138E+00
7.7786E+02	4.6088E+00
7.7834E+02	7.5038E+00
7.7882E+02	9.4904E+00
7.7931E+02	1.0613E+01
7.7979E+02	1.1185E+01
7.8027E+02	1.2541E+01
7.8075E+02	1.1877E+01
7.8124E+02	6.7709E+00
7.8172E+02	1.8387E+00
7.8220E+02	3.9468E+00
7.8268E+02	2.5354E+00
7.8316E+02	7.3093E+00
7.8365E+02	3.0854E+00
7.8413E+02	6.5808E+00
7.8461E+02	9.6973E+00
7.8509E+02	6.7630E+00
7.8557E+02	2.9464E+00
7.8606E+02	7.8693E-01
7.8654E+02	2.3270E+00
7.8702E+02	2.3854E+00
7.8750E+02	1.3508E+01
7.8798E+02	1.9617E+01
7.8847E+02	1.2243E+01
7.8895E+02	4.6742E+00
7.8943E+02	2.8390E+00
7.8991E+02	7.2026E+00
7.9040E+02	9.6266E+00
7.9088E+02	9.7816E+00
7.9136E+02	9.3166E+00
7.9184E+02	8.6998E+00
7.9232E+02	8.5023E+00
7.9281E+02	1.0416E+01
7.9329E+02	1.4458E+01
7.9377E+02	1.8898E+01
7.9425E+02	2.4275E+01
7.9473E+02	2.9695E+01
7.9522E+02	3.3989E+01
7.9570E+02	3.6557E+01
7.9618E+02	4.0374E+01
7.9666E+02	4.7123E+01
7.9714E+02	5.3547E+01
7.9763E+02	5.7341E+01
7.9811E+02	5.8341E+01
7.9859E+02	5.9050E+01
7.9907E+02	5.8993E+01
7.9956E+02	6.1757E+01
8.0004E+02	7.2618E+01
8.0052E+02	8.8227E+01
8.0100E+02	1.0274E+02
8.0148E+02	1.1536E+02
8.0197E+02	1.2622E+02
8.0245E+02	1.3310E+02
8.0293E+02	1.3959E+02
8.0341E+02	1.4910E+02
8.0389E+02	1.6610E+02
8.0438E+02	1.7730E+02
8.0486E+02	1.7785E+02
8.0534E+02	1.7876E+02
8.0582E+02	1.9125E+02
8.0631E+02	2.1522E+02
8.0679E+02	2.3883E+02
8.0727E+02	2.6159E+02
8.0775E+02	2.8087E+02
8.0823E+02	2.8995E+02
8.0872E+02	2.9586E+02
8.0920E+02	3.1038E+02
8.0968E+02	3.3908E+02
8.1016E+02	3.6571E+02
8.1064E+02	3.8128E+02
8.1113E+02	3.9291E+02
8.1161E+02	4.0715E+02
8.1209E+02	4.2402E+02
8.1257E+02	4.4408E+02
8.1305E+02	4.6901E+02
8.1354E+02	4.9448E+02
8.1402E+02	5.1495E+02
8.1450E+02	5.3067E+02
8.1498E+02	5.4455E+02
8.1547E+02	5.5745E+02
8.1595E+02	5.6711E+02
8.1643E+02	5.6838E+02
8.1691E+02	5.6660E+02
8.1739E+02	5.6903E+02
8.1788E+02	5.8195E+02
8.1836E+02	5.8963E+02
8.1884E+02	5.8677E+02
8.1932E+02	5.7898E+02
8.1980E+02	5.7001E+02
8.2029E+02	5.5841E+02
8.2077E+02	5.5238E+02
8.2125E+02	5.5443E+02
8.2173E+02	5.5762E+02
8.2221E+02	5.5067E+02
8.2270E+02	5.3719E+02
8.2318E+02	5.2864E+02
8.2366E+02	5.3133E+02
8.2414E+02	5.2828E+02
8.2463E+02	5.0264E+02
8.2511E+02	4.6759E+02
8.2559E+02	4.3801E+02
8.2607E+02	4.1720E+02
8.2655E+02	4.0064E+02
8.2704E+02	3.9032E+02
8.2752E+02	3.8158E+02
8.2800E+02	3.6715E+02
8.2848E+02	3.4765E+02
8.2896E+02	3.3577E+02
8.2945E+02	3.3411E+02
8.2993E+02	3.3514E+02
8.3041E+02	3.3032E+02
8.3089E+02	3.2427E+02
8.3138E+02	3.2422E+02
8.3186E+02	3.3542E+02
8.3234E+02	3.4182E+02
8.3282E+02	3.3229E+02
8.3330E+02	3.1983E+02
8.3379E+02	3.1878E+02
8.3427E+02	3.3323E+02
8.3475E+02	3.4648E+02
8.3523E+02	3.5843E+02
8.3571E+02	3.6621E+02
8.3620E+02	3.6122E+02
8.3668E+02	3.4850E+02
8.3716E+02	3.4832E+02
8.3764E+02	3.6703E+02
8.3812E+02	3.8715E+02
8.3861E+02	3.9540E+02
8.3909E+02	3.9790E+02
8.3957E+02	4.0098E+02
8.4005E+02	4.0554E+02
8.4054E+02	4.1036E+02
8.4102E+02	4.1499E+02
8.4150E+02	4.2048E+02
8.4198E+02	4.2816E+02
8.4246E+02	4.3810E+02
8.4295E+02	4.4455E+02
8.4343E+02	4.4639E+02
8.4391E+02	4.4763E+02
8.4439E+02	4.5278E+02
8.4487E+02	4.6047E+02
8.4536E+02	4.6757E+02
8.4584E+02	4.7257E+02
8.4632E+02	4.8058E+02
8.4680E+02	4.9962E+02
8.4729E+02	5.1868E+02
8.4777E+02	5.2763E+02
8.4825E+02	5.2103E+02
8.4873E+02	5.1843E+02
8.4921E+02	5.1957E+02
8.4970E+02	5.2552E+02
8.5018E+02	5.3914E+02
8.5066E+02	5.5864E+02
8.5114E+02	5.7782E+02
8.5162E+02	5.9595E+02
8.5211E+02	6.1434E+02
8.5259E+02	6.3604E+02
8.5307E+02	6.5739E+02
8.5355E+02	6.7446E+02
8.5403E+02	6.8358E+02
8.5452E+02	6.9696E+02
8.5500E+02	7.0946E+02
8.5548E+02	7.3354E+02
8.5596E+02	7.8939E+02
8.5645E+02	8.7828E+02
8.5693E+02	9.1837E+02
8.5741E+02	9.0486E+02
8.5789E+02	8.8024E+02
8.5837E+02	8.7519E+02
8.5886E+02	8.8444E+02
8.5934E+02	9.0573E+02
8.5982E+02	9.3976E+02
8.6030E+02	9.6738E+02
8.6078E+02	9.7723E+02
8.6127E+02	9.8126E+02
8.6175E+02	9.8358E+02
8.6223E+02	9.8268E+02
8.6271E+02	9.9912E+02
8.6319E+02	1.0374E+03
8.6368E+02	1.0740E+03
8.6416E+02	1.0935E+03
8.6464E+02	1.0989E+03
8.6512E+02	1.0945E+03
8.6561E+02	1.0814E+03
8.6609E+02	1.0727E+03
8.6657E+02	1.0814E+03
8.6705E+02	1.0926E+03
8.6753E+02	1.0986E+03
8.6802E+02	1.0984E+03
8.6850E+02	1.0904E+03
8.6898E+02	1.0702E+03
8.6946E+02	1.0518E+03
8.6994E+02	1.0442E+03
8.7043E+02	1.0441E+03
8.7091E+02	1.0362E+03
8.7139E+02	1.0209E+03
8.7187E+02	1.0037E+03
8.7236E+02	9.8769E+02
8.7284E+02	9.7139E+02
8.7332E+02	9.5454E+02
8.7380E+02	9.3661E+02
8.7428E+02	9.1576E+02
8.7477E+02	8.8781E+02
8.7525E+02	8.6154E+02
8.7573E+02	8.4111E+02
8.7621E+02	8.2367E+02
8.7669E+02	7.9596E+02
8.7718E+02	7.5814E+02
8.7766E+02	7.1990E+02
8.7814E+02	6.8637E+02
8.7862E+02	6.5417E+02
8.7910E+02	6.1799E+02
8.7959E+02	5.7964E+02
8.8007E+02	5.4289E+02
8.8055E+02	5.0939E+02
8.8103E+02	4.7755E+02
8.8152E+02	4.4802E+02
8.8200E+02	4.1954E+02
8.8248E+02	3.8866E+02
8.8296E+02	3.5484E+02
8.8344E+02	3.2111E+02
8.8393E+02	2.8750E+02
8.8441E+02	2.5638E+02
8.8489E+02	2.3221E+02
8.8537E+02	2.1360E+02
8.8585E+02	1.9726E+02
8.8634E+02	1.8226E+02
8.8682E+02	1.6927E+02
8.8730E+02	1.6064E+02
8.8778E+02	1.5353E+02
8.8827E+02	1.4341E+02
8.8875E+02	1.2720E+02
8.8923E+02	1.1695E+02
8.8971E+02	1.1503E+02
8.9019E+02	1.1607E+02
8.9068E+02	1.1242E+02
8.9116E+02	1.0591E+02
8.9164E+02	1.0325E+02
8.9212E+02	1.0692E+02
8.9260E+02	1.0823E+02
8.9309E+02	9.4764E+01
8.9357E+02	7.9846E+01
8.9405E+02	7.7198E+01
8.9453E+02	9.6322E+01
8.9501E+02	1.0818E+02
8.9550E+02	1.1098E+02
8.9598E+02	1.1031E+02
8.9646E+02	1.0897E+02
8.9694E+02	1.0749E+02
8.9743E+02	1.0786E+02
8.9791E+02	1.1020E+02
8.9839E+02	1.1183E+02
8.9887E+02	1.1069E+02
8.9935E+02	1.0765E+02
8.9984E+02	1.0216E+02
9.0032E+02	9.3736E+01
9.0080E+02	9.0186E+01
9.0128E+02	9.6437E+01
9.0176E+02	1.0142E+02
9.0225E+02	1.0024E+02
9.0273E+02	9.3858E+01
9.0321E+02	8.7442E+01
9.0369E+02	8.0762E+01
9.0417E+02	7.3498E+01
9.0466E+02	6.3824E+01
9.0514E+02	5.4486E+01
9.0562E+02	4.8125E+01
9.0610E+02	4.4491E+01
9.0659E+02	4.2127E+01
9.0707E+02	4.3305E+01
9.0755E+02	4.3123E+01
9.0803E+02	4.0401E+01
9.0851E+02	3.5610E+01
9.0900E+02	2.9320E+01
9.0948E+02	2.1286E+01
9.0996E+02	1.4000E+01
9.1044E+02	8.1786E+00
9.1092E+02	4.6752E+00
9.1141E+02	6.6296E+00
9.1189E+02	1.0948E+01
9.1237E+02	1.2147E+01
9.1285E+02	4.8381E+00
9.1334E+02	1.2811E+00
9.1382E+02	5.5140E+00
9.1430E+02	7.1055E+00
9.1478E+02	3.9609E+00
9.1526E+02	4.4210E+00
9.1575E+02	1.0485E+01
9.1623E+02	1.2792E+01
9.1671E+02	1.4604E+01
9.1719E+02	1.9341E+01
9.1767E+02	2.6133E+01
9.1816E+02	3.3397E+01
9.1864E+02	4.0150E+01
9.1912E+02	4.9274E+01
9.1960E+02	6.4342E+01
9.2008E+02	8.0089E+01
9.2057E+02	9.3185E+01
9.2105E+02	1.0351E+02
9.2153E+02	1.1143E+02
9.2201E+02	1.1647E+02
9.2250E+02	1.2282E+02
9.2298E+02	1.3554E+02
9.2346E+02	1.5076E+02
9.2394E+02	1.6217E+02
9.2442E+02	1.6986E+02
9.2491E+02	1.7926E+02
9.2539E+02	1.9387E+02
9.2587E+02	2.0949E+02
9.2635E+02	2.2549E+02
9.2683E+02	2.4139E+02
9.2732E+02	2.5212E+02
9.2780E+02	2.5709E+02
9.2828E+02	2.6242E+02
9.2876E+02	2.7221E+02
9.2924E+02	2.8279E+02
9.2973E+02	2.8808E+02
9.3021E+02	2.8934E+02
9.3069E+02	2.9010E+02
9.3117E+02	2.9176E+02
9.3166E+02	2.9334E+02
9.3214E+02	2.9734E+02
9.3262E+02	2.9981E+02
9.3310E+02	2.9231E+02
9.3358E+02	2.7279E+02
9.3407E+02	2.5702E+02
9.3455E+02	2.4796E+02
9.3503E+02	2.4339E+02
9.3551E+02	2.4416E+02
9.3599E+02	2.4622E+02
9.3648E+02	2.4139E+02
9.3696E+02	2.2396E+02
9.3744E+02	2.1016E+02
9.3792E+02	2.0977E+02
9.3841E+02	2.1141E+02
9.3889E+02	2.0580E+02
9.3937E+02	1.9087E+02
9.3985E+02	1.8070E+02
9.4033E+02	1.7614E+02
9.4082E+02	1.7153E+02
9.4130E+02	1.6115E+02
9.4178E+02	1.4825E+02
9.4226E+02	1.3747E+02
9.4274E+02	1.2912E+02
9.4323E+02	1.2100E+02
9.4371E+02	1.1252E+02
9.4419E+02	1.0408E+02
9.4467E+02	9.5908E+01
9.4515E+02	8.7941E+01
9.4564E+02	7.9843E+01
9.4612E+02	7.1558E+01
9.4660E+02	6.2999E+01
9.4708E+02	5.4277E+01
9.4757E+02	4.5104E+01
9.4805E+02	3.1791E+01
9.4853E+02	1.7751E+01
9.4901E+02	1.0946E+01
9.4949E+02	2.3427E+01
9.4998E+02	3.1652E+01
9.5046E+02	2.9806E+01
9.5094E+02	2.2504E+01
9.5142E+02	1.6616E+01
9.5190E+02	1.2227E+01
9.5239E+02	6.1434E+00
9.5287E+02	3.1391E+00
9.5335E+02	9.3969E+00
9.5383E+02	9.8378E-01
9.5431E+02	1.2016E+01
9.5480E+02	1.5899E+01
9.5528E+02	4.9436E+00
9.5576E+02	3.2420E+00
9.5624E+02	5.3272E+00
9.5673E+02	4.7349E+00
9.5721E+02	2.6904E+00
9.5769E+02	6.3863E-01
9.5817E+02	2.7866E+00
9.5865E+02	3.7667E+00
9.5914E+02	2.2688E+00
9.5962E+02	5.4485E+00
9.6010E+02	1.3847E+01
9.6058E+02	1.7968E+01
9.6106E+02	1.8127E+01
9.6155E+02	1.7216E+01
9.6203E+02	1.5880E+01
9.6251E+02	1.3145E+01
9.6299E+02	7.7195E+00
9.6348E+02	1.6797E+00
9.6396E+02	6.0160E-01
9.6444E+02	3.9384E+00
9.6492E+02	8.8441E+00
9.6540E+02	1.6652E+01
9.6589E+02	2.1074E+01
9.6637E+02	1.2627E+01
9.6685E+02	3.2179E-01
9.6733E+02	6.7231E+00
9.6781E+02	8.5609E-02
9.6830E+02	4.1133E+00
9.6878E+02	4.4602E+00
9.6926E+02	3.6426E+00
9.6974E+02	4.2299E+00
9.7022E+02	5.7619E+00
9.7071E+02	6.7245E+00
9.7119E+02	7.0048E+00
9.7167E+02	6.4864E+00
9.7215E+02	4.1365E+00
9.7264E+02	1.6245E+00
9.7312E+02	6.5948E-02
9.7360E+02	8.3032E-01
9.7408E+02	2.7878E-02
9.7456E+02	3.2213E+00
9.7505E+02	4.7576E+00
9.7553E+02	2.3013E+00
9.7601E+02	2.4452E+00
9.7649E+02	6.6146E+00
9.7697E+02	1.0056E+01
9.7746E+02	1.2320E+01
9.7794E+02	1.2862E+01
9.7842E+02	1.2697E+01
9.7890E+02	1.1618E+01
9.7939E+02	1.0075E+01
9.7987E+02	8.4028E+00
9.8035E+02	6.0838E+00
9.8083E+02	7.9401E+00
9.8131E+02	1.5479E+01
9.8180E+02	2.2823E+01
9.8228E+02	2.2698E+01
9.8276E+02	1.8689E+01
9.8324E+02	1.5807E+01
9.8372E+02	1.4912E+01
9.8421E+02	1.4157E+01
9.8469E+02	1.1597E+01
9.8517E+02	1.0619E+01
9.8565E+02	1.3447E+01
9.8613E+02	1.9588E+01
9.8662E+02	2.3945E+01
9.8710E+02	2.6416E+01
9.8758E+02	2.6302E+01
9.8806E+02	2.0565E+01
9.8855E+02	1.4419E+01
9.8903E+02	1.3512E+01
9.8951E+02	1.6020E+01
9.8999E+02	1.7249E+01
9.9047E+02	1.2581E+01
9.9096E+02	1.3239E+01
9.9144E+02	2.3390E+01
9.9192E+02	3.5299E+01
9.9240E+02	3.4719E+01
9.9288E+02	2.4875E+01
9.9337E+02	2.0339E+01
9.9385E+02	2.4608E+01
9.9433E+02	2.9365E+01
9.9481E+02	2.9377E+01
9.9529E+02	2.7053E+01
9.9578E+02	2.3536E+01
9.9626E+02	1.8209E+01
9.9674E+02	1.7751E+01
9.9722E+02	2.3811E+01
9.9771E+02	2.8801E+01
9.9819E+02	2.6321E+01
9.9867E+02	2.0261E+01
9.9915E+02	1.9786E+01
9.9963E+02	2.3621E+01
1.0001E+03	2.6620E+01
1.0006E+03	2.5391E+01
1.0011E+03	2.4203E+01
1.0016E+03	2.4560E+01
1.0020E+03	2.5867E+01
1.0025E+03	2.7495E+01
1.0030E+03	2.9569E+01
1.0035E+03	2.9783E+01
1.0040E+03	2.7439E+01
1.0045E+03	2.4354E+01
1.0049E+03	2.1797E+01
1.0054E+03	2.0081E+01
1.0059E+03	2.0022E+01
1.0064E+03	2.2483E+01
1.0069E+03	2.3274E+01
1.0073E+03	1.9884E+01
1.0078E+03	1.7901E+01
1.0083E+03	2.1505E+01
1.0088E+03	2.9360E+01
1.0093E+03	3.3652E+01
1.0098E+03	3.4614E+01
1.0102E+03	3.4378E+01
1.0107E+03	3.2701E+01
1.0112E+03	3.1291E+01
1.0117E+03	3.2107E+01
1.0122E+03	3.4478E+01
1.0127E+03	3.7758E+01
1.0131E+03	4.3865E+01
1.0136E+03	4.4016E+01
1.0141E+03	3.4949E+01
1.0146E+03	2.5098E+01
1.0151E+03	2.8472E+01
1.0155E+03	3.8892E+01
1.0160E+03	4.4132E+01
1.0165E+03	4.1210E+01
1.0170E+03	3.7258E+01
1.0175E+03	3.3423E+01
1.0180E+03	3.0129E+01
1.0184E+03	2.7603E+01
1.0189E+03	2.6173E+01
1.0194E+03	2.9045E+01
1.0199E+03	3.6265E+01
1.0204E+03	4.0492E+01
1.0208E+03	3.3741E+01
1.0213E+03	2.5357E+01
1.0218E+03	2.5783E+01
1.0223E+03	3.1256E+01
1.0228E+03	3.2840E+01
1.0233E+03	2.3389E+01
1.0237E+03	1.9357E+01
1.0242E+03	2.5447E+01
1.0247E+03	3.4677E+01
1.0252E+03	3.5366E+01
1.0257E+03	2.9690E+01
1.0262E+03	2.6620E+01
1.0266E+03	2.7739E+01
1.0271E+03	3.0054E+01
1.0276E+03	3.3886E+01
1.0281E+03	3.6218E+01
1.0286E+03	3.3587E+01
1.0290E+03	2.6465E+01
1.0295E+03	2.6890E+01
1.0300E+03	3.6449E+01
1.0305E+03	4.1081E+01
1.0310E+03	3.0693E+01
1.0315E+03	1.5709E+01
1.0319E+03	9.5764E+00
1.0324E+03	9.9339E+00
1.0329E+03	1.2197E+01
1.0334E+03	1.8689E+01
1.0339E+03	2.2350E+01
1.0343E+03	2.2173E+01
1.0348E+03	1.9240E+01
1.0353E+03	1.2789E+01
1.0358E+03	3.9658E+00
1.0363E+03	1.7817E+00
1.0368E+03	6.9512E+00
1.0372E+03	1.3248E+01
1.0377E+03	1.7760E+01
1.0382E+03	2.0490E+01
1.0387E+03	2.1070E+01
1.0392E+03	1.9819E+01
1.0397E+03	1.8351E+01
1.0401E+03	1.6338E+01
1.0406E+03	1.5777E+01
1.0411E+03	1.8020E+01
1.0416E+03	2.0889E+01
1.0421E+03	2.1707E+01
1.0425E+03	2.0355E+01
1.0430E+03	1.6365E+01
1.0435E+03	6.9388E+00
1.0440E+03	6.2240E-01
1.0445E+03	4.9953E-02
1.0450E+03	1.4430E+00
1.0454E+03	1.6379E+00
1.0459E+03	8.7856E-01
1.0464E+03	2.8936E+00
1.0469E+03	7.6837E+00
1.0474E+03	1.2726E+01
1.0478E+03	1.7875E+01
1.0483E+03	2.1001E+01
1.0488E+03	1.9309E+01
1.0493E+03	1.4387E+01
1.0498E+03	1.2812E+01
1.0503E+03	1.5938E+01
1.0507E+03	1.7847E+01
1.0512E+03	1.7381E+01
1.0517E+03	1.5155E+01
1.0522E+03	9.6993E+00
1.0527E+03	3.8090E+00
1.0531E+03	2.7443E+00
1.0536E+03	8.5077E+00
1.0541E+03	1.4383E+01
1.0546E+03	2.0661E+01
1.0551E+03	2.4379E+01
1.0556E+03	2.2470E+01
1.0560E+03	1.6260E+01
1.0565E+03	1.6057E+01
1.0570E+03	2.1069E+01
1.0575E+03	2.4432E+01
1.0580E+03	2.0342E+01
1.0585E+03	1.5421E+01
1.0589E+03	1.3494E+01
1.0594E+03	1.3726E+01
1.0599E+03	1.4572E+01
1.0604E+03	1.6497E+01
1.0609E+03	1.6643E+01
1.0613E+03	1.4127E+01
1.0618E+03	1.2573E+01
1.0623E+03	1.7253E+01
1.0628E+03	2.4544E+01
1.0633E+03	2.9485E+01
1.0638E+03	3.1670E+01
1.0642E+03	3.1472E+01
1.0647E+03	2.7351E+01
1.0652E+03	2.2713E+01
1.0657E+03	1.8330E+01
1.0662E+03	1.4434E+01
1.0666E+03	1.0680E+01
1.0671E+03	7.5597E+00
1.0676E+03	8.0261E+00
1.0681E+03	1.5361E+01
1.0686E+03	2.0860E+01
1.0691E+03	1.6902E+01
1.0695E+03	1.0198E+01
1.0700E+03	7.5096E+00
1.0705E+03	9.8665E+00
1.0710E+03	1.0341E+01
1.0715E+03	8.6795E+00
1.0720E+03	7.6946E+00
1.0724E+03	1.1126E+01
1.0729E+03	1.4987E+01
1.0734E+03	1.2476E+01
1.0739E+03	5.9950E+00
1.0744E+03	4.2610E+00
1.0748E+03	1.2541E+01
1.0753E+03	2.0387E+01
1.0758E+03	2.7929E+01
1.0763E+03	3.2220E+01
1.0768E+03	2.6646E+01
1.0773E+03	1.4810E+01
1.0777E+03	6.7131E+00
1.0782E+03	3.8769E+00
1.0787E+03	4.0312E+00
1.0792E+03	9.4599E+00
1.0797E+03	1.4192E+01
1.0801E+03	1.5313E+01
1.0806E+03	1.3238E+01
1.0811E+03	9.8896E+00
1.0816E+03	5.3392E+00
1.0821E+03	1.9694E+00
1.0826E+03	8.3107E-01
1.0830E+03	8.0756E-01
1.0835E+03	2.7443E-01
1.0840E+03	3.5307E-01
1.0845E+03	4.3975E+00
1.0850E+03	1.8853E+01
1.0855E+03	2.4724E+01
1.0859E+03	2.0404E+01
1.0864E+03	1.3382E+01
1.0869E+03	8.1060E+00
1.0874E+03	4.6142E+00
1.0879E+03	3.2960E+00
1.0883E+03	3.6337E+00
1.0888E+03	4.9814E+00
1.0893E+03	9.4395E+00
1.0898E+03	1.1800E+01
1.0903E+03	1.0523E+01
1.0908E+03	7.6707E+00
1.0912E+03	6.4502E+00
1.0917E+03	6.4763E+00
1.0922E+03	5.6041E+00
1.0927E+03	3.3563E+00
1.0932E+03	2.6409E+00
1.0936E+03	7.6915E+00
1.0941E+03	1.2542E+01
1.0946E+03	1.3357E+01
1.0951E+03	1.0628E+01
1.0956E+03	7.6049E+00
1.0961E+03	4.2170E+00
1.0965E+03	2.1584E+00
1.0970E+03	1.9483E+00
1.0975E+03	3.3223E+00
1.0980E+03	7.5209E+00
1.0985E+03	1.2463E+01
1.0990E+03	1.5115E+01
1.0994E+03	1.4096E+01
1.0999E+03	1.3186E+01
1.1004E+03	1.2245E+01
1.1009E+03	1.1909E+01
1.1014E+03	1.3512E+01
1.1018E+03	1.5520E+01
1.1023E+03	1.4768E+01
1.1028E+03	1.1974E+01
1.1033E+03	9.6090E+00
1.1038E+03	8.5800E+00
1.1043E+03	8.1081E+00
1.1047E+03	7.8927E+00
1.1052E+03	8.2928E+00
1.1057E+03	1.0743E+01
1.1062E+03	1.4253E+01
1.1067E+03	1.4283E+01
1.1071E+03	1.0265E+01
1.1076E+03	6.8250E+00
1.1081E+03	6.5592E+00
1.1086E+03	7.9007E+00
1.1091E+03	1.0605E+01
1.1096E+03	1.4162E+01
1.1100E+03	1.6611E+01
1.1105E+03	1.7729E+01
1.1110E+03	1.7584E+01
1.1115E+03	1.6072E+01
1.1120E+03	1.3763E+01
1.1124E+03	9.7233E+00
1.1129E+03	6.0828E+00
1.1134E+03	5.7762E+00
1.1139E+03	1.0187E+01
1.1144E+03	1.1736E+01
1.1149E+03	9.8931E+00
1.1153E+03	7.2031E+00
1.1158E+03	4.1615E+00
1.1163E+03	2.0401E+00
1.1168E+03	4.2609E+00
1.1173E+03	8.8178E+00
1.1178E+03	1.1261E+01
1.1182E+03	8.7599E+00
1.1187E+03	5.9357E+00
1.1192E+03	2.6662E+00
1.1197E+03	3.6812E-02
1.1202E+03	8.9481E-01
1.1206E+03	5.1239E-01
1.1211E+03	3.2406E-01
1.1216E+03	1.9809E-01
1.1221E+03	1.0428E+00
1.1226E+03	5.9955E+00
1.1231E+03	8.7548E+00
1.1235E+03	6.3049E+00
1.1240E+03	1.7062E+00
1.1245E+03	1.1294E+00
1.1250E+03	4.0163E+00
1.1255E+03	5.3481E+00
1.1259E+03	3.9848E+00
1.1264E+03	2.9906E+00
1.1269E+03	5.2318E+00
1.1274E+03	7.9989E+00
1.1279E+03	8.8001E+00
1.1284E+03	8.0652E+00
1.1288E+03	1.0420E+01
1.1293E+03	1.6154E+01
1.1298E+03	1.9817E+01
1.1303E+03	1.8999E+01
1.1308E+03	1.6274E+01
1.1313E+03	1.3865E+01
1.1317E+03	1.1290E+01
1.1322E+03	7.4892E+00
1.1327E+03	9.2446E-01
1.1332E+03	9.0908E-01
1.1337E+03	3.1085E+00
1.1341E+03	7.1759E+00
1.1346E+03	7.1249E+00
1.1351E+03	5.1781E+00
1.1356E+03	4.7888E+00
1.1361E+03	5.3564E+00
1.1366E+03	5.3869E+00
1.1370E+03	3.0053E+00
1.1375E+03	2.4635E+00
1.1380E+03	4.6079E+00
1.1385E+03	7.3533E+00
1.1390E+03	9.1474E+00
1.1394E+03	9.6911E+00
1.1399E+03	6.7627E+00
1.1404E+03	9.3896E-01
1.1409E+03	1.7788E+00
1.1414E+03	3.8992E+00
1.1419E+03	9.5636E+00
1.1423E+03	1.3771E+01
1.1428E+03	1.5981E+01
1.1433E+03	1.4749E+01
1.1438E+03	1.0624E+01
1.1443E+03	5.2869E+00
1.1448E+03	1.2884E+00
1.1452E+03	5.2087E+00
1.1457E+03	2.9168E+00
1.1462E+03	1.2353E+00
1.1467E+03	5.4841E+00
1.1472E+03	9.4673E+00
1.1476E+03	9.9869E+00
1.1481E+03	7.4434E+00
1.1486E+03	7.8226E+00
1.1491E+03	1.4599E+01
1.1496E+03	2.0532E+01
1.1501E+03	1.9426E+01
1.1505E+03	1.5351E+01
1.1510E+03	1.1844E+01
1.1515E+03	8.9795E+00
1.1520E+03	8.1878E+00
1.1525E+03	9.6019E+00
1.1529E+03	9.6499E+00
1.1534E+03	3.8665E+00
1.1539E+03	1.2863E+00
1.1544E+03	2.1829E+00
1.1549E+03	1.0029E+01
1.1554E+03	1.4894E+01
1.1558E+03	1.6016E+01
1.1563E+03	1.4262E+01
1.1568E+03	8.8332E+00
1.1573E+03	5.0088E+00
1.1578E+03	9.5149E+00
1.1583E+03	1.6339E+01
1.1587E+03	1.7299E+01
1.1592E+03	1.3805E+01
1.1597E+03	1.2095E+01
1.1602E+03	1.4326E+01
1.1607E+03	1.5966E+01
1.1611E+03	1.6942E+01
1.1616E+03	1.5919E+01
1.1621E+03	8.4534E+00
1.1626E+03	7.4271E-01
1.1631E+03	2.2920E+00
1.1636E+03	3.8951E+00
1.1640E+03	7.3885E+00
1.1645E+03	2.5646E+00
1.1650E+03	3.5646E-01
1.1655E+03	4.7261E+00
1.1660E+03	1.0753E+01
1.1664E+03	7.3867E+00
1.1669E+03	7.9755E-01
1.1674E+03	2.4072E+00
1.1679E+03	5.8952E+00
1.1684E+03	1.1571E+01
1.1689E+03	7.5325E+00
1.1693E+03	4.0380E+00
1.1698E+03	5.8476E+00
1.1703E+03	1.0297E+01
1.1708E+03	8.7483E+00
1.1713E+03	3.0793E+00
1.1718E+03	6.9184E-01
1.1722E+03	7.3696E-01
1.1727E+03	1.5772E+00
1.1732E+03	9.3429E+00
1.1737E+03	1.5701E+01
1.1742E+03	1.5275E+01
1.1746E+03	9.5757E+00
1.1751E+03	9.9481E+00
1.1756E+03	1.4960E+01
1.1761E+03	1.6635E+01
1.1766E+03	6.5880E+00
1.1771E+03	1.4800E+00
1.1775E+03	1.7314E+00
1.1780E+03	7.2479E+00
1.1785E+03	6.1040E+00
1.1790E+03	1.5938E+00
1.1795E+03	5.4067E+00
1.1799E+03	5.2964E+00
1.1804E+03	2.8994E+00
1.1809E+03	2.8096E+00
1.1814E+03	8.2736E+00
1.1819E+03	1.2841E+01
1.1824E+03	1.5330E+01
1.1828E+03	1.2799E+01
1.1833E+03	4.9261E+00
1.1838E+03	1.8403E+00
1.1843E+03	4.4477E+00
1.1848E+03	7.7332E+00
1.1852E+03	8.4962E+00
1.1857E+03	8.1000E+00
1.1862E+03	6.4746E+00
1.1867E+03	4.5749E+00
1.1872E+03	5.3014E+00
1.1877E+03	8.8875E+00
1.1881E+03	1.1475E+01
1.1886E+03	1.2522E+01
1.1891E+03	1.1728E+01
1.1896E+03	5.9924E+00
1.1901E+03	6.3568E-01
1.1906E+03	1.2965E+00
1.1910E+03	6.9381E+00
1.1915E+03	8.6667E+00
1.1920E+03	5.8286E+00
1.1925E+03	5.7517E+00
1.1930E+03	1.1420E+01
1.1934E+03	1.7104E+01
1.1939E+03	1.6428E+01
1.1944E+03	1.3243E+01
1.1949E+03	1.0804E+01
1.1954E+03	9.3774E+00
1.1959E+03	1.1530E+01
1.1963E+03	1.7838E+01
1.1968E+03	2.0887E+01
1.1973E+03	1.6228E+01
1.1978E+03	1.0279E+01
1.1983E+03	1.0497E+01
1.1987E+03	1.3317E+01
1.1992E+03	1.4183E+01
1.1997E+03	1.1955E+01
1.2002E+03	1.2522E+01
1.2007E+03	1.6678E+01
1.2012E+03	1.7823E+01
1.2016E+03	9.7443E+00
1.2021E+03	2.5832E-01
1.2026E+03	7.4719E-01
1.2031E+03	2.4739E+00
1.2036E+03	3.3220E+00
1.2041E+03	5.3618E-01
1.2045E+03	2.0512E+00
1.2050E+03	9.6833E-01
1.2055E+03	8.5874E-01
1.2060E+03	2.2397E+00
1.2065E+03	3.6150E+00
1.2069E+03	5.8098E+00
1.2074E+03	8.3549E+00
1.2079E+03	1.0104E+01
1.2084E+03	1.1032E+01
1.2089E+03	1.0770E+01
1.2094E+03	8.9369E+00
1.2098E+03	7.8872E+00
1.2103E+03	1.1478E+01
1.2108E+03	1.5516E+01
1.2113E+03	1.3948E+01
1.2118E+03	8.5111E+00
1.2122E+03	6.2364E+00
1.2127E+03	8.7329E+00
1.2132E+03	1.0714E+01
1.2137E+03	1.1774E+01
1.2142E+03	1.1912E+01
1.2147E+03	8.4828E+00
1.2151E+03	4.9221E+00
1.2156E+03	5.6944E+00
1.2161E+03	1.0031E+01
1.2166E+03	1.1874E+01
1.2171E+03	9.5042E+00
1.2176E+03	9.7362E+00
1.2180E+03	1.4225E+01
1.2185E+03	1.9154E+01
1.2190E+03	2.0082E+01
1.2195E+03	1.9234E+01
1.2200E+03	1.9333E+01
1.2204E+03	2.0360E+01
1.2209E+03	1.9263E+01
1.2214E+03	1.5159E+01
1.2219E+03	1.3525E+01
1.2224E+03	1.6660E+01
1.2229E+03	1.9167E+01
1.2233E+03	1.0589E+01
1.2238E+03	2.7480E-01
1.2243E+03	1.4021E+00
1.2248E+03	1.5834E+01
1.2253E+03	1.8973E+01
1.2257E+03	7.8376E+00
1.2262E+03	8.7330E-01
1.2267E+03	4.8718E+00
1.2272E+03	1.2264E+01
1.2277E+03	1.5020E+01
1.2282E+03	1.5263E+01
1.2286E+03	1.5533E+01
1.2291E+03	1.6219E+01
1.2296E+03	1.4832E+01
1.2301E+03	1.1034E+01
1.2306E+03	7.5763E+00
1.2311E+03	5.0338E+00
1.2315E+03	4.1432E+00
1.2320E+03	8.1396E+00
1.2325E+03	1.2948E+01
1.2330E+03	1.2676E+01
1.2335E+03	6.0761E+00
1.2339E+03	3.2845E+00
1.2344E+03	4.6125E+00
1.2349E+03	6.7910E+00
1.2354E+03	8.7122E+00
1.2359E+03	1.0590E+01
1.2364E+03	1.3428E+01
1.2368E+03	1.5979E+01
1.2373E+03	1.6258E+01
1.2378E+03	1.4150E+01
1.2383E+03	1.3316E+01
1.2388E+03	1.3861E+01
1.2392E+03	1.3992E+01
1.2397E+03	1.2656E+01
1.2402E+03	1.0752E+01
1.2407E+03	8.1896E+00
1.2412E+03	6.0161E+00
1.2417E+03	5.9276E+00
1.2421E+03	8.5197E+00
1.2426E+03	9.1954E+00
1.2431E+03	7.9460E+00
1.2436E+03	5.9872E+00
1.2441E+03	2.6277E+00
1.2445E+03	3.3965E-01
1.2450E+03	1.6851E+00
1.2455E+03	4.8345E+00
1.2460E+03	6.1794E+00
1.2465E+03	5.5325E+00
1.2470E+03	9.8974E+00
1.2474E+03	1.8945E+01
1.2479E+03	2.3267E+01
1.2484E+03	1.0920E+01
1.2489E+03	1.3861E+00
1.2494E+03	3.6072E+00
1.2499E+03	6.8189E-01
1.2503E+03	8.4042E-01
1.2508E+03	1.1070E+00
1.2513E+03	4.9123E+00
1.2518E+03	1.1986E+01
1.2523E+03	1.5637E+01
1.2527E+03	6.1608E+00
1.2532E+03	9.8514E-01
1.2537E+03	4.3187E+00
1.2542E+03	1.3048E+01
1.2547E+03	1.2413E+01
1.2552E+03	4.3045E+00
1.2556E+03	3.8129E+00
1.2561E+03	1.1181E+01
1.2566E+03	1.6767E+01
1.2571E+03	1.3623E+01
1.2576E+03	1.0946E+01
1.2580E+03	1.2545E+01
1.2585E+03	1.5131E+01
1.2590E+03	1.3116E+01
1.2595E+03	8.2151E+00
1.2600E+03	7.2375E+00
1.2605E+03	1.0333E+01
1.2609E+03	1.3000E+01
1.2614E+03	1.3297E+01
1.2619E+03	1.2539E+01
1.2624E+03	1.0426E+01
1.2629E+03	8.4411E+00
1.2634E+03	9.5056E+00
1.2638E+03	1.2121E+01
1.2643E+03	1.2753E+01
1.2648E+03	1.1198E+01
1.2653E+03	9.2655E+00
1.2658E+03	6.3409E+00
1.2662E+03	4.9242E+00
1.2667E+03	5.5576E+00
1.2672E+03	7.9203E+00
1.2677E+03	1.4187E+01
1.2682E+03	2.0749E+01
1.2687E+03	2.0318E+01
1.2691E+03	1.2832E+01
1.2696E+03	8.6902E+00
1.2701E+03	1.1178E+01
1.2706E+03	1.0235E+01
1.2711E+03	2.1969E+00
1.2715E+03	4.4708E+00
1.2720E+03	5.4509E+00
1.2725E+03	1.9852E+01
1.2730E+03	2.3584E+01
1.2735E+03	1.5925E+01
1.2740E+03	9.9156E+00
1.2744E+03	5.3206E+00
1.2749E+03	6.7311E+00
1.2754E+03	1.6680E+01
1.2759E+03	2.5875E+01
1.2764E+03	2.3297E+01
1.2769E+03	1.6332E+01
1.2773E+03	1.0692E+01
1.2778E+03	7.0016E+00
1.2783E+03	7.1425E+00
1.2788E+03	1.0720E+01
1.2793E+03	1.1187E+01
1.2797E+03	5.6330E+00
1.2802E+03	6.6377E-01
1.2807E+03	2.6691E+00
1.2812E+03	6.3987E+00
1.2817E+03	7.2582E+00
1.2822E+03	6.3167E+00
1.2826E+03	8.0098E+00
1.2831E+03	1.1988E+01
1.2836E+03	1.5150E+01
1.2841E+03	1.7011E+01
1.2846E+03	1.6976E+01
1.2850E+03	1.1393E+01
1.2855E+03	7.7270E+00
1.2860E+03	1.0610E+01
1.2865E+03	1.7034E+01
1.2870E+03	1.8535E+01
1.2875E+03	1.6209E+01
1.2879E+03	1.3253E+01
1.2884E+03	1.0087E+01
1.2889E+03	8.2760E+00
1.2894E+03	8.4184E+00
1.2899E+03	9.3771E+00
1.2904E+03	1.4174E+01
1.2908E+03	1.9289E+01
1.2913E+03	1.8466E+01
1.2918E+03	1.4492E+01
1.2923E+03	1.3104E+01
1.2928E+03	1.5725E+01
1.2932E+03	1.7338E+01
1.2937E+03	1.6958E+01
1.2942E+03	1.6715E+01
1.2947E+03	1.7678E+01
1.2952E+03	1.8649E+01
1.2957E+03	1.6664E+01
1.2961E+03	1.4336E+01
1.2966E+03	1.6004E+01
1.2971E+03	2.2783E+01
1.2976E+03	2.5541E+01
1.2981E+03	2.3883E+01
1.2985E+03	2.0357E+01
1.2990E+03	1.4774E+01
1.2995E+03	1.0907E+01
1.3000E+03	1.5081E+01
1.3005E+03	2.1141E+01
1.3010E+03	2.3556E+01
1.3014E+03	2.2317E+01
1.3019E+03	1.5536E+01
1.3024E+03	3.5831E+00
1.3029E+03	1.3928E+00
1.3034E+03	5.4885E+00
1.3039E+03	1.3062E+01
1.3043E+03	1.2760E+01
1.3048E+03	1.1380E+01
1.3053E+03	1.3770E+01
1.3058E+03	1.3819E+01
1.3063E+03	1.1363E+01
1.3067E+03	3.9140E+00
1.3072E+03	9.2540E-03
1.3077E+03	0.0000E+00
##END=	
