
169.7132, 0.0000000E+00
170.1953, 29.63867
170.6774, 45.21875
171.1595, 64.84570
171.6417, 38.54297
172.1238, 5.981445
172.6059, 9.460938
173.0880, 3.176758
173.5701, 11.02539
174.0522, 33.39258
174.5344, 57.79590
175.0165, 74.04492
175.4986, 75.29785
175.9807, 66.48145
176.4628, 59.84766
176.9449, 50.26855
177.4271, 53.41504
177.9092, 91.34766
178.3913, 139.8906
178.8734, 162.3633
179.3555, 132.1465
179.8376, 72.85156
180.3197, 57.66211
180.8019, 113.6211
181.2840, 167.3789
181.7661, 191.4326
182.2482, 201.4336
182.7303, 218.1719
183.2124, 254.5938
183.6946, 299.5879
184.1767, 319.3145
184.6588, 297.1465
185.1409, 277.3174
185.6230, 272.4053
186.1051, 275.6670
186.5873, 279.6582
187.0694, 281.0010
187.5515, 280.8926
188.0336, 282.4404
188.5157, 283.5645
188.9978, 290.3965
189.4800, 307.3711
189.9621, 328.2080
190.4442, 346.0215
190.9263, 357.1621
191.4084, 365.8564
191.8905, 384.9404
192.3727, 432.2656
192.8548, 456.8086
193.3369, 440.4775
193.8190, 406.1299
194.3011, 370.4150
194.7832, 339.5615
195.2654, 320.4482
195.7475, 332.2637
196.2296, 403.9043
196.7117, 452.2627
197.1938, 452.4854
197.6759, 436.8008
198.1581, 434.0205
198.6402, 453.6963
199.1223, 482.6562
199.6044, 495.0107
200.0865, 476.8223
200.5686, 470.0352
201.0508, 487.4834
201.5329, 510.0527
202.0150, 523.2090
202.4971, 523.0234
202.9792, 514.8408
203.4613, 507.6748
203.9435, 504.9668
204.4256, 494.9590
204.9077, 463.9307
205.3898, 435.5557
205.8719, 432.2539
206.3540, 455.5771
206.8362, 482.8730
207.3183, 480.5547
207.8004, 431.9248
208.2825, 395.7900
208.7646, 375.0332
209.2467, 363.0332
209.7289, 360.7305
210.2110, 365.6963
210.6931, 369.5283
211.1752, 359.3604
211.6573, 326.1094
212.1395, 312.8984
212.6216, 338.1562
213.1037, 366.1914
213.5858, 383.4062
214.0679, 387.4189
214.5500, 379.9189
215.0322, 359.1465
215.5143, 320.7939
215.9964, 298.6172
216.4785, 302.8301
216.9606, 313.4385
217.4427, 330.6172
217.9249, 348.9912
218.4070, 356.3730
218.8891, 337.8418
219.3712, 291.8477
219.8533, 276.6982
220.3354, 331.6885
220.8176, 380.8027
221.2997, 407.0654
221.7818, 411.5225
222.2639, 397.3828
222.7460, 362.6406
223.2281, 311.3750
223.7103, 290.0938
224.1924, 337.9570
224.6745, 374.6846
225.1566, 379.8066
225.6387, 364.1934
226.1208, 344.0840
226.6030, 328.1494
227.0851, 316.2500
227.5672, 305.3340
228.0493, 303.3867
228.5314, 298.0469
229.0135, 282.3340
229.4957, 264.1748
229.9778, 252.5996
230.4599, 251.4775
230.9420, 258.4199
231.4241, 265.8779
231.9062, 280.0293
232.3884, 282.5508
232.8705, 260.6582
233.3526, 233.6982
233.8347, 219.8281
234.3168, 224.7871
234.7989, 238.4512
235.2811, 243.2080
235.7632, 234.9834
236.2453, 227.3789
236.7274, 215.5449
237.2095, 208.6924
237.6916, 217.0430
238.1738, 240.8047
238.6559, 266.9639
239.1380, 279.6289
239.6201, 276.2598
240.1022, 268.4229
240.5843, 252.2969
241.0665, 235.2031
241.5486, 215.7891
242.0307, 196.9150
242.5128, 187.9502
242.9949, 203.5127
243.4770, 247.1182
243.9592, 273.1475
244.4413, 266.8623
244.9234, 255.8213
245.4055, 240.1260
245.8876, 227.0039
246.3697, 233.7832
246.8519, 286.4775
247.3340, 375.0039
247.8161, 402.2910
248.2982, 321.1885
248.7803, 238.5781
249.2624, 188.6572
249.7446, 162.5264
250.2267, 145.3555
250.7088, 130.4336
251.1909, 117.8496
251.6730, 108.8232
252.1551, 106.9385
252.6373, 101.1650
253.1194, 80.42969
253.6015, 57.41406
254.0836, 48.16309
254.5657, 60.64160
255.0478, 80.47168
255.5300, 81.03906
256.0121, 54.05078
256.4942, 39.39648
256.9763, 63.58789
257.4584, 95.94336
257.9406, 114.0244
258.4227, 112.8193
258.9048, 105.3496
259.3869, 103.2051
259.8690, 106.3838
260.3511, 116.2598
260.8333, 145.6387
261.3154, 170.4229
261.7975, 169.1914
262.2796, 142.9453
262.7617, 117.0010
263.2438, 109.4619
263.7260, 117.9678
264.2081, 130.3965
264.6902, 151.4287
265.1723, 166.7158
265.6544, 162.1562
266.1365, 143.0693
266.6187, 126.9668
267.1008, 120.9756
267.5829, 123.7295
268.0650, 135.3936
268.5471, 159.8223
269.0292, 180.5127
269.5114, 182.0850
269.9935, 172.3096
270.4756, 163.2061
270.9577, 155.1152
271.4398, 151.1650
271.9219, 156.8057
272.4041, 172.3291
272.8862, 188.2529
273.3683, 200.8691
273.8504, 210.2949
274.3325, 216.5215
274.8146, 216.5088
275.2968, 218.8770
275.7789, 228.2441
276.2610, 244.4619
276.7431, 269.2490
277.2252, 308.3564
277.7073, 349.2432
278.1895, 372.3584
278.6716, 378.2139
279.1537, 371.3174
279.6358, 342.2588
280.1179, 303.8408
280.6000, 278.4111
281.0822, 271.3086
281.5643, 274.3047
282.0464, 279.5586
282.5285, 287.1914
283.0106, 295.3203
283.4927, 305.2061
283.9749, 313.3496
284.4570, 316.6992
284.9391, 315.2373
285.4212, 310.7227
285.9033, 303.3896
286.3854, 293.4150
286.8676, 287.7363
287.3497, 284.0371
287.8318, 286.6670
288.3139, 303.3008
288.7960, 326.8408
289.2781, 340.3564
289.7603, 331.8486
290.2424, 309.4521
290.7245, 305.8457
291.2066, 344.8301
291.6887, 370.4199
292.1708, 365.1611
292.6530, 342.9639
293.1351, 320.9180
293.6172, 306.3291
294.0993, 298.4473
294.5814, 294.9736
295.0635, 297.3125
295.5457, 299.4033
296.0278, 310.5049
296.5099, 316.0664
296.9920, 299.6182
297.4741, 263.0742
297.9562, 226.4395
298.4384, 211.8145
298.9205, 223.8105
299.4026, 225.7480
299.8847, 206.4541
300.3668, 189.0693
300.8489, 181.7012
301.3310, 181.2471
301.8131, 181.6230
302.2953, 177.8301
302.7774, 171.8838
303.2595, 175.0977
303.7416, 199.6602
304.2237, 215.0518
304.7058, 209.0508
305.1880, 194.3184
305.6701, 183.1143
306.1522, 179.8398
306.6343, 183.8408
307.1164, 199.3906
307.5985, 235.1982
308.0807, 249.6348
308.5628, 203.7656
309.0449, 156.1055
309.5270, 145.9463
310.0091, 178.1426
310.4912, 218.8809
310.9734, 235.8877
311.4555, 234.5596
311.9376, 237.6992
312.4197, 255.2227
312.9018, 264.3838
313.3839, 244.5039
313.8661, 205.6504
314.3482, 174.4619
314.8303, 169.5508
315.3124, 176.6963
315.7945, 168.2988
316.2766, 141.0381
316.7588, 117.9121
317.2409, 114.2412
317.7230, 121.9863
318.2051, 127.1709
318.6872, 124.7598
319.1693, 125.6143
319.6515, 146.3115
320.1336, 180.0098
320.6157, 194.2217
321.0978, 173.1445
321.5799, 135.2451
322.0620, 108.0479
322.5442, 91.37695
323.0263, 81.25293
323.5084, 80.43750
323.9905, 83.89551
324.4726, 85.43066
324.9547, 84.01758
325.4369, 80.89551
325.9190, 76.63672
326.4011, 71.03613
326.8832, 68.65625
327.3653, 70.18164
327.8474, 74.11230
328.3296, 82.24707
328.8117, 92.46289
329.2938, 97.90820
329.7759, 93.62500
330.2580, 83.18164
330.7401, 83.00781
331.2223, 103.4658
331.7044, 121.4248
332.1865, 137.3535
332.6686, 148.3721
333.1507, 150.2207
333.6328, 141.9990
334.1150, 128.5186
334.5971, 116.7881
335.0792, 108.0693
335.5613, 97.81055
336.0434, 83.59082
336.5255, 70.17090
337.0077, 59.81934
337.4898, 52.55664
337.9719, 47.99707
338.4540, 47.62695
338.9361, 49.97559
339.4182, 40.39258
339.9004, 5.187500
340.3825, 21.40039
340.8646, 28.58301
341.3467, 22.92676
341.8288, 9.996094
342.3109, 9.958008
342.7931, 27.68262
343.2752, 26.84473
343.7573, 4.591797
344.2394, 16.55176
344.7215, 39.51758
345.2036, 52.08984
345.6858, 35.98438
346.1679, 8.192383
346.6500, 40.89648
347.1321, 27.95508
347.6142, 15.32129
348.0963, 48.64746
348.5785, 69.29883
349.0606, 76.22266
349.5427, 56.97070
350.0248, 21.72656
350.5069, 1.587891
350.9890, 16.86719
351.4712, 37.34180
351.9533, 39.18750
352.4354, 24.38574
352.9175, 1.681641
353.3996, 29.26270
353.8817, 60.47949
354.3639, 67.39844
354.8460, 36.13086
355.3281, 15.21680
355.8102, 28.04492
356.2923, 51.14551
356.7744, 52.43750
357.2566, 26.37109
357.7387, 2.651367
358.2208, 6.328125
358.7029, 21.51074
359.1850, 41.26074
359.6671, 52.99707
360.1493, 57.87012
360.6314, 51.15332
361.1135, 38.20801
361.5956, 29.32227
362.0777, 30.54883
362.5598, 40.22461
363.0420, 53.17090
363.5241, 77.30664
364.0062, 91.32324
364.4883, 89.45898
364.9704, 79.78516
365.4525, 70.52051
365.9347, 62.82617
366.4168, 49.18164
366.8989, 8.295898
367.3810, 64.67383
367.8631, 84.10059
368.3452, 0.7099610
368.8274, 83.65820
369.3095, 107.5664
369.7916, 88.51172
370.2737, 65.95703
370.7558, 51.68359
371.2379, 48.78711
371.7201, 70.09570
372.2022, 118.9424
372.6843, 164.1221
373.1664, 195.5605
373.6485, 211.2705
374.1306, 210.8418
374.6128, 190.8594
375.0949, 167.9131
375.5770, 142.7969
376.0591, 120.2451
376.5412, 116.3584
377.0233, 136.0293
377.5055, 165.1895
377.9876, 190.2139
378.4697, 206.2100
378.9518, 211.9756
379.4339, 199.3604
379.9160, 187.2314
380.3982, 191.9033
380.8803, 206.4902
381.3624, 208.6582
381.8445, 184.5586
382.3266, 146.6973
382.8087, 133.6270
383.2909, 176.3848
383.7730, 205.9600
384.2551, 212.2979
384.7372, 207.6406
385.2193, 201.4443
385.7014, 197.3486
386.1836, 197.5703
386.6657, 201.4229
387.1478, 208.4971
387.6299, 212.4053
388.1120, 210.0781
388.5941, 207.9834
389.0763, 208.1201
389.5584, 209.7773
390.0405, 210.7061
390.5226, 207.9648
391.0047, 209.8018
391.4868, 235.9658
391.9690, 290.4717
392.4511, 328.5596
392.9332, 331.2930
393.4153, 318.2803
393.8974, 305.9199
394.3795, 294.7969
394.8617, 289.5498
395.3438, 299.9785
395.8259, 314.9092
396.3080, 314.5254
396.7901, 296.7031
397.2722, 272.0391
397.7544, 240.2656
398.2365, 208.1953
398.7186, 205.8652
399.2007, 264.4648
399.6828, 313.4570
400.1649, 317.1943
400.6471, 295.2607
401.1292, 280.7197
401.6113, 284.4121
402.0934, 294.7422
402.5755, 295.0186
403.0576, 281.4814
403.5398, 271.8486
404.0219, 268.7432
404.5040, 266.5762
404.9861, 264.6250
405.4682, 261.1357
405.9503, 252.7598
406.4325, 237.5205
406.9146, 219.0859
407.3967, 210.3125
407.8788, 216.5693
408.3609, 222.9082
408.8430, 231.6348
409.3252, 233.6455
409.8073, 218.7471
410.2894, 187.2529
410.7715, 155.7773
411.2536, 136.0205
411.7357, 126.9316
412.2179, 128.3877
412.7000, 146.7285
413.1821, 160.3564
413.6642, 147.6924
414.1463, 119.9941
414.6284, 99.52637
415.1106, 95.30566
415.5927, 92.76953
416.0748, 73.29688
416.5569, 47.03516
417.0390, 48.27148
417.5211, 94.09375
418.0033, 152.3652
418.4854, 174.0049
418.9675, 146.0771
419.4496, 123.1162
419.9317, 108.6182
420.4138, 98.23633
420.8960, 87.55469
421.3781, 78.04004
421.8602, 76.37891
422.3423, 88.12207
422.8244, 108.3535
423.3065, 115.4570
423.7887, 100.6270
424.2708, 85.67578
424.7529, 67.41309
425.2350, 49.95020
425.7171, 46.12305
426.1992, 59.97949
426.6814, 71.77344
427.1635, 59.48242
427.6456, 26.25977
428.1277, 13.82324
428.6098, 34.27148
429.0919, 52.27246
429.5741, 40.38477
430.0562, 16.91992
430.5383, 12.06250
431.0204, 42.70020
431.5025, 71.98828
431.9846, 58.80957
432.4668, 17.08301
432.9489, 2.552734
433.4310, 36.85645
433.9131, 76.82617
434.3952, 64.02539
434.8773, 9.263672
435.3595, 47.65820
435.8416, 14.88379
436.3237, 26.11035
436.8058, 35.76270
437.2879, 21.70508
437.7701, 8.012695
438.2522, 6.672852
438.7343, 15.40723
439.2164, 30.24609
439.6985, 68.59082
440.1806, 80.65723
440.6628, 40.24707
441.1449, 2.542969
441.6270, 10.96484
442.1091, 10.48535
442.5912, 29.57129
443.0733, 15.33203
443.5555, 17.54297
444.0376, 3.120117
444.5197, 84.22754
445.0018, 148.1934
445.4839, 124.8408
445.9660, 72.79785
446.4482, 51.26855
446.9303, 71.64648
447.4124, 92.51465
447.8945, 84.53320
448.3766, 59.84180
448.8587, 42.89746
449.3409, 36.87109
449.8230, 38.59082
450.3051, 48.89648
450.7872, 65.86133
451.2693, 71.28418
451.7514, 54.05566
452.2336, 39.13574
452.7157, 32.92969
453.1978, 34.83691
453.6799, 49.94824
454.1620, 77.64355
454.6441, 98.64062
455.1263, 83.57227
455.6084, 21.12109
456.0905, 12.13477
456.5726, 10.32422
457.0547, 36.28223
457.5368, 53.07031
458.0190, 62.59473
458.5011, 67.95801
458.9832, 69.25781
459.4653, 72.74121
459.9474, 92.34375
460.4295, 128.2803
460.9117, 150.0938
461.3938, 147.4824
461.8759, 134.9971
462.3580, 123.6807
462.8401, 113.6484
463.3222, 105.4326
463.8044, 97.14160
464.2865, 91.44824
464.7686, 91.46973
465.2507, 97.16016
465.7328, 109.0205
466.2149, 128.4346
466.6971, 148.6582
467.1792, 158.6387
467.6613, 152.6602
468.1434, 148.8770
468.6255, 148.8232
469.1076, 149.5049
469.5898, 148.8535
470.0719, 147.3955
470.5540, 148.4160
471.0361, 155.2285
471.5182, 162.4971
472.0003, 150.2568
472.4825, 104.5332
472.9646, 77.05957
473.4467, 98.45312
473.9288, 128.2549
474.4109, 140.7559
474.8930, 135.4912
475.3752, 127.5781
475.8573, 123.5742
476.3394, 122.6064
476.8215, 125.5859
477.3036, 132.6660
477.7857, 136.3203
478.2679, 132.6816
478.7500, 122.1152
479.2321, 109.3564
479.7142, 92.21289
480.1963, 79.62598
480.6784, 76.36523
481.1606, 76.31836
481.6427, 72.25781
482.1248, 65.04199
482.6069, 61.22168
483.0890, 64.78711
483.5711, 76.84570
484.0533, 105.8965
484.5354, 179.7256
485.0175, 225.0264
485.4996, 215.5225
485.9817, 184.8779
486.4638, 154.0869
486.9460, 128.5312
487.4281, 116.1289
487.9102, 133.5801
488.3923, 168.3438
488.8744, 181.3271
489.3565, 169.4844
489.8387, 145.7451
490.3208, 99.92188
490.8029, 55.68555
491.2850, 64.74316
491.7671, 148.2695
492.2492, 210.1865
492.7314, 195.1807
493.2135, 151.6768
493.6956, 142.7354
494.1777, 170.6377
494.6598, 195.7617
495.1419, 187.1387
495.6241, 151.4443
496.1062, 132.1104
496.5883, 143.1230
497.0704, 151.2705
497.5525, 155.5205
498.0346, 154.0576
498.5168, 142.8652
498.9989, 120.3984
499.4810, 103.1104
499.9631, 116.9463
500.4452, 148.8018
500.9273, 142.6377
501.4095, 86.78320
501.8916, 37.72559
502.3737, 16.67188
502.8558, 17.72070
503.3379, 36.91797
503.8200, 81.69824
504.3022, 112.4053
504.7843, 96.98926
505.2664, 69.82715
505.7485, 78.62305
506.2306, 121.2656
506.7127, 153.2998
507.1949, 143.1064
507.6770, 102.0576
508.1591, 80.01172
508.6412, 99.70508
509.1233, 105.0537
509.6054, 80.15137
510.0876, 50.21680
510.5697, 30.71387
511.0518, 24.19922
511.5339, 29.34375
512.0161, 51.06055
512.4982, 79.52246
512.9803, 83.44043
513.4624, 56.37695
513.9445, 38.68555
514.4266, 55.08887
514.9088, 83.30859
515.3909, 94.47754
515.8730, 87.48047
516.3551, 77.05469
516.8372, 58.88184
517.3193, 45.58691
517.8015, 56.64746
518.2836, 85.25684
518.7657, 102.7314
519.2478, 93.25488
519.7299, 66.05566
520.2120, 42.08203
520.6942, 15.83594
521.1763, 3.881836
521.6584, 20.86719
522.1405, 36.71777
522.6226, 29.13379
523.1047, 7.003906
523.5869, 3.633789
524.0690, 14.04492
524.5511, 42.76660
525.0332, 52.90430
525.5153, 44.59863
525.9974, 40.40723
526.4796, 48.91406
526.9617, 57.85059
527.4438, 51.53125
527.9259, 32.02734
528.4080, 16.83203
528.8901, 8.467773
529.3723, 4.959961
529.8544, 8.843750
530.3365, 16.04004
530.8186, 18.12598
531.3007, 12.38184
531.7828, 4.061523
532.2650, 0.4257810
532.7471, 1.801758
533.2292, 5.520508
533.7113, 41.27832
534.1934, 62.62012
534.6755, 41.38086
535.1577, 4.109375
535.6398, 11.85059
536.1219, 5.357422
536.6040, 32.68652
537.0861, 52.44434
537.5682, 65.20020
538.0504, 72.07617
538.5325, 72.92383
539.0146, 69.87500
539.4967, 63.76953
539.9788, 54.87109
540.4609, 45.12695
540.9431, 35.06934
541.4252, 23.66016
541.9073, 0.9531250
542.3894, 17.06836
542.8715, 7.596680
543.3536, 25.83789
543.8358, 52.95215
544.3179, 45.91699
544.8000, 16.74805
545.2821, 24.24805
545.7642, 90.54785
546.2463, 132.7305
546.7285, 115.0605
547.2106, 75.51172
547.6926, 32.90820
548.1747, 9.083008
548.6569, 31.10449
549.1390, 5.306641
549.6211, 32.07227
550.1032, 36.90137
550.5853, 16.09473
551.0674, 4.675781
551.5496, 17.89453
552.0317, 39.09277
552.5138, 38.75000
552.9959, 1.310547
553.4780, 4.107422
553.9601, 70.18359
554.4423, 120.8789
554.9244, 83.31348
555.4065, 1.978516
555.8886, 51.64844
556.3707, 51.30371
556.8528, 26.30957
557.3350, 8.450195
557.8171, 3.208008
558.2992, 16.99805
558.7813, 34.96973
559.2634, 51.16211
559.7455, 63.44434
560.2277, 69.89746
560.7098, 65.61035
561.1919, 38.56055
561.6740, 22.64844
562.1561, 40.81641
562.6382, 67.28613
563.1204, 71.25293
563.6025, 53.12402
564.0846, 36.81445
564.5667, 40.70605
565.0488, 58.17188
565.5309, 59.37891
566.0131, 28.18652
566.4952, 21.61523
566.9773, 84.63477
567.4594, 146.9844
567.9415, 159.7109
568.4236, 129.7900
568.9058, 99.29492
569.3879, 86.71289
569.8700, 80.86914
570.3521, 66.73242
570.8342, 48.85645
571.3163, 46.89551
571.7985, 68.36523
572.2806, 91.41504
572.7627, 86.25391
573.2448, 47.20508
573.7269, 33.32910
574.2090, 69.43359
574.6912, 99.56836
575.1733, 102.4238
575.6554, 96.04980
576.1375, 106.0244
576.6196, 135.6113
577.1017, 157.6895
577.5839, 136.3193
578.0660, 88.06445
578.5481, 70.80566
579.0302, 87.87207
579.5123, 117.2256
579.9944, 159.2490
580.4766, 197.5234
580.9587, 193.0234
581.4408, 133.1289
581.9229, 92.31250
582.4050, 93.83594
582.8871, 104.7676
583.3693, 102.9287
583.8514, 93.18359
584.3335, 91.72754
584.8156, 104.8271
585.2977, 122.7676
585.7798, 132.6182
586.2620, 133.6230
586.7441, 139.5723
587.2262, 157.7861
587.7083, 169.5410
588.1904, 158.8066
588.6725, 135.7900
589.1547, 117.1367
589.6368, 107.3359
590.1189, 95.26855
590.6010, 66.78223
591.0831, 38.35938
591.5652, 33.23828
592.0474, 50.46191
592.5295, 74.62500
593.0116, 97.13672
593.4937, 113.0791
593.9758, 107.8623
594.4579, 65.23730
594.9401, 37.88867
595.4222, 35.55566
595.9043, 44.97656
596.3864, 66.25293
596.8685, 94.13477
597.3506, 117.4834
597.8328, 133.0674
598.3149, 140.9062
598.7970, 137.4941
599.2791, 126.5781
599.7612, 115.8760
600.2433, 106.1533
600.7255, 103.7734
601.2076, 115.3535
601.6897, 137.1836
602.1718, 145.2793
602.6539, 124.8027
603.1360, 110.3906
603.6182, 106.5840
604.1003, 108.0029
604.5824, 114.7188
605.0645, 123.5801
605.5466, 125.0801
606.0287, 109.2705
606.5109, 86.88086
606.9930, 76.43262
607.4751, 76.46875
607.9572, 84.86133
608.4393, 104.5693
608.9214, 118.8076
609.4036, 107.1436
609.8857, 69.38281
610.3678, 49.96973
610.8499, 52.88672
611.3320, 66.65430
611.8141, 109.1025
612.2963, 149.1279
612.7784, 149.4902
613.2605, 111.2793
613.7426, 66.99902
614.2247, 44.33008
614.7068, 40.83496
615.1890, 52.14941
615.6711, 78.82715
616.1532, 93.36230
616.6353, 84.96582
617.1174, 66.65625
617.5995, 49.15723
618.0817, 32.46875
618.5638, 28.70996
619.0459, 53.44336
619.5280, 73.71289
620.0101, 75.14160
620.4922, 65.74902
620.9744, 52.69434
621.4565, 39.29688
621.9386, 31.00977
622.4207, 33.34082
622.9028, 44.44141
623.3849, 57.97168
623.8671, 74.47266
624.3492, 90.31250
624.8313, 105.5332
625.3134, 118.2891
625.7955, 129.7480
626.2776, 139.8750
626.7598, 132.7529
627.2419, 72.13184
627.7240, 30.53027
628.2061, 72.24707
628.6882, 145.1934
629.1703, 168.3477
629.6525, 126.0732
630.1346, 65.48926
630.6167, 29.62109
631.0988, 15.57422
631.5809, 8.215820
632.0630, 9.726563
632.5452, 8.826172
633.0273, 2.533203
633.5094, 13.22559
633.9915, 12.04980
634.4736, 0.5839840
634.9557, 21.87500
635.4379, 76.28711
635.9200, 112.8506
636.4021, 79.92285
636.8842, 18.86914
637.3663, 0.7255860
637.8484, 38.67383
638.3306, 83.67090
638.8127, 84.74219
639.2948, 50.69531
639.7769, 39.42188
640.2590, 62.19824
640.7411, 65.92578
641.2233, 16.25098
641.7054, 39.98242
642.1875, 48.89258
642.6696, 14.83691
643.1517, 8.747070
643.6339, 2.788086
644.1160, 12.87305
644.5981, 5.242188
645.0802, 35.15137
645.5623, 47.91992
646.0444, 39.57812
646.5266, 33.60352
647.0087, 54.58594
647.4908, 94.48145
647.9729, 113.4404
648.4550, 106.0850
648.9371, 98.71875
649.4193, 97.62402
649.9014, 99.19922
650.3835, 102.3848
650.8656, 106.2236
651.3477, 103.2080
651.8298, 85.26953
652.3120, 67.97266
652.7941, 56.68555
653.2762, 51.25000
653.7583, 51.92285
654.2404, 58.34766
654.7225, 69.98145
655.2047, 88.80664
655.6868, 109.3320
656.1689, 107.8369
656.6510, 77.83301
657.1331, 68.84863
657.6152, 106.8281
658.0974, 146.0859
658.5795, 136.8408
659.0616, 91.04688
659.5437, 62.01367
660.0258, 63.45117
660.5079, 71.08887
660.9901, 79.28711
661.4722, 87.99512
661.9543, 101.1943
662.4364, 115.8623
662.9185, 118.4922
663.4006, 96.78125
663.8828, 67.11426
664.3649, 70.54395
664.8470, 108.5352
665.3291, 129.5771
665.8112, 122.2246
666.2933, 105.1416
666.7755, 89.84082
667.2576, 76.05859
667.7397, 62.10742
668.2218, 45.36816
668.7039, 32.75684
669.1860, 17.10059
669.6682, 13.03418
670.1503, 46.58691
670.6324, 101.5791
671.1145, 131.0859
671.5966, 109.5469
672.0787, 71.66895
672.5609, 64.54004
673.0430, 85.18262
673.5251, 117.7471
674.0072, 165.4102
674.4893, 196.8057
674.9714, 188.8594
675.4536, 155.5010
675.9357, 132.8447
676.4178, 126.5244
676.8999, 118.4033
677.3820, 107.1152
677.8641, 94.84375
678.3463, 77.02441
678.8284, 61.01270
679.3105, 60.16211
679.7926, 78.73145
680.2747, 102.5293
680.7568, 130.4482
681.2390, 150.4814
681.7211, 123.3281
682.2032, 51.62500
682.6853, 2.863281
683.1674, 9.129883
683.6495, 42.43457
684.1317, 59.88965
684.6138, 58.20410
685.0959, 57.94824
685.5780, 61.53027
686.0601, 63.58105
686.5422, 60.83398
687.0244, 57.14746
687.5065, 54.95117
687.9886, 55.19238
688.4707, 61.70508
688.9528, 87.04395
689.4349, 111.8428
689.9171, 108.7510
690.3992, 86.72559
690.8813, 73.20605
691.3634, 75.36914
691.8455, 80.08789
692.3276, 72.42676
692.8098, 55.29785
693.2919, 58.85742
693.7740, 98.23926
694.2561, 124.6670
694.7382, 117.6846
695.2203, 105.2617
695.7025, 105.0391
696.1846, 115.4961
696.6667, 130.1406
697.1488, 158.8447
697.6309, 174.1758
698.1130, 144.3848
698.5952, 102.6816
699.0773, 100.2061
699.5594, 130.6943
700.0415, 142.1777
700.5236, 100.6670
701.0057, 37.63477
701.4879, 21.37305
701.9700, 53.79395
702.4521, 90.39844
702.9342, 133.1104
703.4163, 165.5342
703.8984, 176.9268
704.3806, 168.4434
704.8627, 141.3447
705.3448, 80.85645
705.8269, 48.74316
706.3090, 74.63770
706.7911, 109.7998
707.2733, 128.8770
707.7554, 135.6914
708.2375, 141.1045
708.7196, 148.2764
709.2017, 150.2188
709.6838, 137.6553
710.1660, 113.3838
710.6481, 78.59766
711.1302, 34.96875
711.6123, 12.41699
712.0944, 24.88965
712.5765, 47.83984
713.0587, 49.03613
713.5408, 26.61035
714.0229, 22.45020
714.5050, 48.89746
714.9871, 77.27930
715.4692, 115.1426
715.9514, 144.5264
716.4335, 146.4863
716.9156, 125.1611
717.3977, 99.63086
717.8798, 69.70703
718.3619, 49.45703
718.8441, 57.12402
719.3262, 79.32520
719.8083, 94.08105
720.2904, 98.54199
720.7725, 100.1494
721.2546, 103.9902
721.7368, 109.0039
722.2189, 108.1270
722.7010, 98.87012
723.1831, 93.32812
723.6652, 97.53320
724.1473, 97.60254
724.6295, 77.97363
725.1116, 51.69238
725.5937, 47.87695
726.0758, 77.16309
726.5579, 91.99512
727.0400, 70.12012
727.5222, 45.35840
728.0043, 38.14453
728.4864, 41.75977
728.9685, 42.25293
729.4506, 36.73633
729.9327, 34.34375
730.4149, 48.27344
730.8970, 69.16602
731.3791, 71.97266
731.8612, 59.18066
732.3433, 57.71387
732.8254, 79.39941
733.3076, 100.2520
733.7897, 92.47852
734.2718, 59.11230
734.7539, 41.36230
735.2360, 46.66895
735.7181, 55.97754
736.2003, 84.09766
736.6824, 99.82812
737.1645, 69.44043
737.6466, 11.68945
738.1287, 21.64355
738.6108, 11.69238
739.0930, 12.68652
739.5751, 44.21680
740.0572, 75.50879
740.5393, 101.2021
741.0214, 118.5576
741.5035, 120.0820
741.9857, 102.1582
742.4678, 77.10547
742.9499, 62.47461
743.4320, 57.49512
743.9141, 50.64062
744.3962, 41.23242
744.8784, 31.81250
745.3605, 21.02539
745.8426, 16.15625
746.3247, 29.97949
746.8068, 65.77441
747.2889, 89.45703
747.7711, 101.3008
748.2532, 101.7061
748.7353, 80.79297
749.2174, 55.90039
749.6995, 41.64941
750.1816, 38.42090
750.6638, 39.40918
751.1459, 41.63086
751.6280, 47.73926
752.1101, 63.23047
752.5922, 81.21582
753.0743, 91.12988
753.5565, 93.08887
754.0386, 83.96484
754.5207, 60.27832
755.0028, 34.40039
755.4849, 34.81250
755.9670, 66.08594
756.4492, 78.85742
756.9313, 64.65820
757.4134, 50.98242
757.8955, 49.62891
758.3776, 55.29297
758.8597, 65.17969
759.3419, 82.00879
759.8240, 78.13379
760.3061, 24.46289
760.7882, 19.42188
761.2703, 27.95312
761.7524, 16.41797
762.2346, 2.922852
762.7167, 25.66992
763.1988, 47.16602
763.6809, 67.88867
764.1630, 80.63867
764.6451, 73.69629
765.1273, 52.90137
765.6094, 28.63477
766.0915, 4.064453
766.5736, 9.368164
767.0557, 3.482422
767.5378, 12.92090
768.0200, 19.66309
768.5021, 13.87207
768.9842, 16.61816
769.4663, 32.73145
769.9484, 47.98047
770.4305, 59.53125
770.9127, 64.60938
771.3948, 56.70117
771.8769, 34.44824
772.3590, 16.67188
772.8411, 0.4072270
773.3232, 5.435547
773.8054, 18.05664
774.2875, 47.79492
774.7696, 56.91016
775.2517, 47.13184
775.7338, 43.28125
776.2159, 63.16504
776.6981, 85.51562
777.1802, 87.42383
777.6623, 73.32031
778.1444, 48.38379
778.6265, 15.75293
779.1086, 11.55371
779.5908, 26.87012
780.0729, 28.35449
780.5550, 5.552734
781.0371, 46.85645
781.5192, 65.89062
782.0013, 37.46094
782.4835, 13.48828
782.9656, 17.08496
783.4477, 31.50488
783.9298, 35.39062
784.4119, 28.51660
784.8940, 22.08789
785.3762, 10.80371
785.8583, 7.494141
786.3404, 22.15723
786.8225, 41.09375
787.3046, 53.91309
787.7867, 59.98145
788.2689, 63.64551
788.7510, 68.99414
789.2331, 64.98828
789.7152, 28.14258
790.1973, 17.02344
790.6794, 28.76270
791.1616, 10.13867
791.6437, 12.01660
792.1258, 26.24609
792.6079, 36.59082
793.0900, 50.55176
793.5721, 66.35449
794.0543, 58.97070
794.5364, 20.23242
795.0185, 15.31836
795.5006, 80.22656
795.9827, 146.5498
796.4648, 143.6738
796.9470, 79.53516
797.4291, 40.28223
797.9112, 41.89355
798.3933, 46.19824
798.8754, 57.38867
799.3575, 65.10352
799.8397, 62.67188
800.3218, 52.74512
800.8039, 37.78320
801.2860, 16.03320
801.7681, 6.117188
802.2502, 29.27148
802.7324, 57.88574
803.2145, 67.54199
803.6966, 63.50586
804.1787, 55.82520
804.6608, 48.25781
805.1429, 44.83301
805.6251, 51.51367
806.1072, 60.94336
806.5893, 54.82227
807.0714, 35.44434
807.5535, 21.29004
808.0356, 15.78711
808.5178, 8.486328
808.9999, 10.05566
809.4820, 30.27637
809.9641, 25.81152
810.4462, 12.57812
810.9283, 42.44434
811.4105, 65.13770
811.8926, 77.14355
812.3747, 68.34277
812.8568, 54.02539
813.3389, 54.36035
813.8210, 69.06055
814.3032, 72.09570
814.7853, 44.24512
815.2674, 24.14746
815.7495, 35.49316
816.2316, 52.12109
816.7137, 42.27246
817.1959, 15.88770
817.6780, 11.20605
818.1601, 48.34180
818.6422, 89.87598
819.1243, 108.5361
819.6064, 113.4053
820.0886, 113.3447
820.5707, 110.2275
821.0528, 104.8506
821.5349, 97.51953
822.0170, 88.74023
822.4991, 77.52539
822.9813, 66.09473
823.4634, 65.43652
823.9455, 76.04785
824.4276, 85.49902
824.9097, 94.32129
825.3918, 96.91699
825.8740, 86.45703
826.3561, 67.47168
826.8382, 53.39062
827.3203, 45.58984
827.8024, 39.43457
828.2845, 27.39258
828.7667, 26.69238
829.2488, 54.21484
829.7309, 89.87109
830.2130, 112.1299
830.6951, 119.0762
831.1772, 112.4111
831.6594, 74.37305
832.1415, 46.65234
832.6236, 55.45898
833.1057, 77.48926
833.5878, 92.50488
834.0699, 98.08887
834.5521, 97.55859
835.0342, 92.36035
835.5163, 82.55371
835.9984, 61.64551
836.4805, 41.68066
836.9626, 46.52246
837.4448, 70.11328
837.9269, 88.32227
838.4090, 93.82227
838.8911, 87.59668
839.3732, 66.92383
839.8553, 37.59375
840.3375, 18.70996
840.8196, 10.31543
841.3017, 19.65332
841.7838, 52.81250
842.2659, 79.65723
842.7480, 78.36133
843.2302, 58.46582
843.7123, 43.49805
844.1944, 31.92969
844.6765, 33.23730
845.1586, 62.91211
845.6407, 82.46777
846.1229, 65.24219
846.6050, 41.52637
847.0871, 45.09277
847.5692, 73.50293
848.0513, 88.37891
848.5334, 81.25879
849.0156, 69.44336
849.4977, 46.66406
849.9798, 29.16895
850.4619, 35.67480
850.9440, 56.25879
851.4261, 67.29883
851.9083, 60.95605
852.3904, 55.38770
852.8725, 69.25879
853.3546, 84.50879
853.8367, 72.09668
854.3188, 48.55078
854.8010, 56.13281
855.2831, 96.89551
855.7652, 125.6133
856.2473, 105.1963
856.7294, 65.85449
857.2115, 65.86816
857.6937, 94.50586
858.1758, 101.8975
858.6579, 83.86133
859.1400, 62.83008
859.6221, 48.42383
860.1042, 41.78320
860.5864, 44.79590
861.0685, 56.81250
861.5506, 60.76758
862.0327, 50.09473
862.5148, 37.74219
862.9969, 24.74902
863.4791, 19.32324
863.9612, 32.81250
864.4433, 57.70020
864.9254, 65.80273
865.4075, 42.46484
865.8896, 32.64453
866.3718, 39.01953
866.8539, 53.98047
867.3360, 89.55762
867.8181, 124.5117
868.3002, 135.6816
868.7823, 120.4883
869.2645, 94.43164
869.7466, 42.00000
870.2287, 4.566406
870.7108, 0.1621090
871.1929, 15.70801
871.6750, 55.97363
872.1572, 103.1338
872.6393, 120.0625
873.1214, 93.29883
873.6035, 58.28223
874.0856, 34.28613
874.5677, 20.04004
875.0499, 20.84277
875.5320, 27.98535
876.0141, 16.49902
876.4962, 12.86230
876.9783, 21.56641
877.4604, 20.94824
877.9426, 79.20215
878.4247, 88.80078
878.9068, 65.16016
879.3889, 73.45508
879.8710, 113.9854
880.3531, 134.4082
880.8353, 112.9951
881.3174, 71.45898
881.7995, 30.79590
882.2816, 5.256836
882.7637, 6.067383
883.2458, 35.47656
883.7280, 55.72559
884.2101, 36.76758
884.6922, 21.29199
885.1743, 40.06152
885.6564, 76.30371
886.1385, 92.20312
886.6207, 80.92188
887.1028, 81.98730
887.5849, 115.6758
888.0670, 127.9580
888.5491, 81.76172
889.0313, 28.79004
889.5134, 18.13770
889.9955, 40.07031
890.4776, 49.72852
890.9597, 37.94238
891.4418, 25.01270
891.9240, 2.552734
892.4061, 8.353516
892.8882, 15.62695
893.3703, 51.29883
893.8524, 65.55859
894.3345, 55.26074
894.8167, 45.17090
895.2988, 42.29590
895.7809, 45.54688
896.2630, 64.65625
896.7451, 81.74707
897.2272, 65.23340
897.7094, 32.07812
898.1915, 37.16602
898.6736, 100.6035
899.1557, 149.9561
899.6378, 101.5000
900.1199, 27.75488
900.6021, 24.62012
901.0842, 62.36133
901.5663, 69.76562
902.0484, 39.27734
902.5305, 11.89941
903.0126, 12.97266
903.4948, 31.09180
903.9769, 56.17773
904.4590, 83.88574
904.9411, 101.9639
905.4232, 109.7363
905.9053, 102.0410
906.3875, 76.01465
906.8696, 46.84082
907.3517, 26.64941
907.8338, 17.23926
908.3159, 30.48340
908.7980, 66.65918
909.2802, 84.90527
909.7623, 79.34766
910.2444, 68.04688
910.7265, 59.26367
911.2086, 49.89453
911.6907, 31.95410
912.1729, 6.010742
912.6550, 15.11328
913.1371, 77.94727
913.6192, 115.5615
914.1013, 106.7041
914.5834, 84.55078
915.0656, 67.32324
915.5477, 54.05273
916.0298, 42.19434
916.5119, 27.04688
916.9940, 25.70020
917.4761, 69.42188
917.9583, 86.90234
918.4404, 23.51562
918.9225, 39.27734
919.4046, 22.15723
919.8867, 50.63574
920.3688, 85.40625
920.8510, 55.25098
921.3331, 32.28125
921.8152, 28.42578
922.2973, 33.70703
922.7794, 54.94727
923.2615, 75.24902
923.7437, 70.98340
924.2258, 44.43652
924.7079, 1.647461
925.1900, 40.83691
925.6721, 63.20020
926.1542, 69.63477
926.6364, 12.42676
927.1185, 37.39160
927.6006, 29.42090
928.0827, 19.84863
928.5648, 56.02539
929.0469, 7.930664
929.5291, 43.71973
930.0112, 46.07227
930.4933, 63.73047
930.9754, 48.25098
931.4575, 43.00488
931.9396, 70.87402
932.4218, 80.32715
932.9039, 60.94141
933.3860, 79.55273
933.8681, 30.94434
934.3502, 40.46191
934.8323, 74.83398
935.3145, 57.10938
935.7966, 76.32812
936.2787, 81.50488
936.7608, 22.87598
937.2429, 75.20508
937.7250, 79.54492
938.2072, 34.61035
938.6893, 83.15918
939.1714, 16.12988
939.6535, 9.757813
940.1356, 14.27051
940.6177, 26.87305
941.0999, 40.99219
941.5820, 51.53027
942.0641, 57.02539
942.5462, 52.79102
943.0283, 41.04492
943.5104, 30.87109
943.9926, 22.23633
944.4747, 22.58496
944.9568, 34.72949
945.4389, 47.70703
945.9210, 51.57031
946.4031, 49.10059
946.8853, 50.83203
947.3674, 56.79102
947.8495, 54.16895
948.3316, 40.81836
948.8137, 34.78906
949.2958, 44.57324
949.7780, 55.52148
950.2601, 49.15430
950.7422, 31.87891
951.2243, 34.12695
951.7064, 60.22266
952.1885, 76.64844
952.6707, 78.73828
953.1528, 76.51758
953.6349, 74.18945
954.1170, 70.65820
954.5991, 64.06250
955.0812, 54.61426
955.5634, 46.44727
956.0455, 41.53223
956.5276, 30.03711
957.0097, 0.1201170
957.4918, 13.11230
957.9739, 19.10449
958.4561, 68.30176
958.9382, 86.61426
959.4203, 71.28711
959.9024, 64.62305
960.3845, 73.49023
960.8666, 77.27148
961.3488, 74.91504
961.8309, 63.79980
962.3130, 32.56934
962.7951, 3.500977
963.2772, 12.35742
963.7593, 12.35742
964.2415, 30.27051
964.7236, 38.67480
965.2057, 44.25586
965.6878, 42.86523
966.1699, 44.16309
966.6520, 62.23633
967.1342, 85.62598
967.6163, 83.87207
968.0984, 44.12012
968.5805, 28.45215
969.0626, 69.31250
969.5447, 95.07520
970.0269, 69.30176
970.5090, 38.67188
970.9911, 47.66699
971.4732, 78.86719
971.9553, 81.78125
972.4374, 41.97461
972.9196, 9.125000
973.4017, 20.44629
973.8838, 29.00684
974.3659, 12.35156
974.8480, 59.25000
975.3301, 63.99902
975.8123, 39.28320
976.2944, 34.54199
976.7765, 67.18262
977.2586, 79.99316
977.7407, 27.59277
978.2228, 9.096680
978.7050, 29.00391
979.1871, 82.27734
979.6692, 84.34082
980.1513, 47.33301
980.6334, 30.76367
981.1155, 53.38770
981.5977, 77.83203
982.0798, 106.1553
982.5619, 118.0527
983.0440, 88.13867
983.5261, 47.91895
984.0082, 31.90527
984.4904, 38.26758
984.9725, 46.99023
985.4546, 53.48730
985.9367, 59.34277
986.4188, 69.48535
986.9009, 74.31641
987.3831, 63.65430
987.8652, 49.52246
988.3473, 41.62988
988.8294, 41.23047
989.3115, 44.18750
989.7936, 53.70312
990.2758, 53.10352
990.7579, 19.15430
991.2400, 9.272461
991.7221, 3.661133
992.2042, 19.58691
992.6863, 43.35254
993.1685, 63.85840
993.6506, 80.33887
994.1327, 95.73242
994.6148, 97.37793
995.0969, 64.60840
995.5790, 32.45508
996.0612, 22.12500
996.5433, 28.38281
997.0254, 52.75879
997.5075, 86.85352
997.9896, 100.1211
998.4717, 75.33105
998.9539, 49.53320
999.4360, 42.89551
999.9181, 37.77930
1000.400, 14.32129
1000.882, 8.653320
1001.364, 3.477539
1001.847, 24.19727
1002.329, 36.53418
1002.811, 13.09473
1003.293, 3.915039
1003.775, 7.000000
1004.257, 29.28613
1004.739, 63.71582
1005.221, 94.85254
1005.703, 102.2256
1006.186, 88.02344
1006.668, 68.51562
1007.150, 45.20410
1007.632, 30.81152
1008.114, 35.39648
1008.596, 46.10547
1009.078, 56.02930
1009.560, 66.08984
1010.043, 83.79883
1010.525, 103.5615
1011.007, 102.6367
1011.489, 66.84570
1011.971, 36.89160
1012.453, 28.12305
1012.935, 32.71680
1013.417, 57.76270
1013.899, 84.90918
1014.382, 93.30566
1014.864, 84.89844
1015.346, 71.08594
1015.828, 52.21582
1016.310, 48.87695
1016.792, 86.89062
1017.274, 121.6875
1017.756, 127.9746
1018.239, 119.7402
1018.721, 107.1084
1019.203, 94.02246
1019.685, 88.08398
1020.167, 94.20215
1020.649, 90.94531
1021.131, 60.41211
1021.613, 33.40527
1022.095, 13.75293
1022.578, 10.58789
1023.060, 49.92188
1023.542, 108.8262
1024.024, 127.3330
1024.506, 87.62598
1024.988, 52.84961
1025.470, 43.79297
1025.952, 37.39453
1026.435, 22.04688
1026.917, 8.741211
1027.399, 5.192383
1027.881, 10.71094
1028.363, 26.39355
1028.845, 55.23633
1029.327, 68.75586
1029.809, 46.54492
1030.292, 29.57129
1030.774, 38.33203
1031.256, 44.82031
1031.738, 19.37598
1032.220, 12.98438
1032.702, 7.464844
1033.184, 42.91895
1033.666, 76.01172
1034.148, 77.56250
1034.630, 73.09375
1035.113, 61.32129
1035.595, 50.23242
1036.077, 35.68848
1036.559, 29.37109
1037.041, 54.89355
1037.523, 114.1211
1038.005, 143.2080
1038.487, 127.7256
1038.970, 104.3350
1039.452, 54.99805
1039.934, 24.66406
1040.416, 51.35059
1040.898, 91.48828
1041.380, 86.81543
1041.862, 43.26660
1042.344, 28.37988
1042.826, 62.96875
1043.309, 80.47949
1043.791, 76.11719
1044.273, 58.97363
1044.755, 14.45215
1045.237, 20.72559
1045.719, 1.734375
1046.201, 55.37402
1046.683, 74.93359
1047.166, 40.98242
1047.648, 19.43066
1048.130, 14.23633
1048.612, 14.99902
1049.094, 19.46094
1049.576, 26.12891
1050.058, 33.52441
1050.540, 40.36230
1051.022, 42.62598
1051.505, 39.14941
1051.987, 44.89941
1052.469, 62.80859
1052.951, 69.52539
1053.433, 57.73633
1053.915, 44.46484
1054.397, 41.29102
1054.879, 42.81738
1055.361, 37.20605
1055.844, 26.14844
1056.326, 37.39355
1056.808, 70.74512
1057.290, 67.64258
1057.772, 17.61719
1058.254, 18.05078
1058.736, 6.784180
1059.218, 23.52637
1059.701, 36.34961
1060.183, 34.25781
1060.665, 26.78906
1061.147, 16.80566
1061.629, 17.37793
1062.111, 54.96680
1062.593, 75.70703
1063.075, 80.53516
1063.557, 21.73438
1064.040, 45.07520
1064.522, 35.46777
1065.004, 24.50977
1065.486, 59.39941
1065.968, 9.800781
1066.450, 43.95898
1066.932, 44.67969
1067.414, 60.76758
1067.896, 45.28809
1068.379, 38.49512
1068.861, 64.75586
1069.343, 72.66113
1069.825, 51.72266
1070.307, 25.58594
1070.789, 46.91895
1071.271, 63.89160
1071.753, 72.96387
1072.236, 73.27441
1072.718, 62.83203
1073.200, 54.51172
1073.682, 63.66504
1074.164, 72.26367
1074.646, 56.13867
1075.128, 37.24023
1075.610, 51.77539
1076.093, 86.14453
1076.575, 93.46094
1077.057, 60.25586
1077.539, 37.78027
1078.021, 63.45215
1078.503, 84.72266
1078.985, 74.04395
1079.467, 53.92480
1079.949, 36.61230
1080.432, 25.96973
1080.914, 29.93359
1081.396, 47.64453
1081.878, 50.35645
1082.360, 14.76074
1082.842, 8.293945
1083.324, 8.043945
1083.806, 2.553711
1084.288, 26.21777
1084.771, 50.96289
1085.253, 65.11621
1085.735, 69.21680
1086.217, 64.62793
1086.699, 42.82617
1087.181, 36.01855
1087.663, 56.82324
1088.145, 66.15234
1088.628, 47.19141
1089.110, 26.83008
1089.592, 25.25488
1090.074, 34.16699
1090.556, 39.28418
1091.038, 40.81055
1091.520, 35.87012
1092.002, 22.17383
1092.484, 18.13379
1092.967, 28.14062
1093.449, 38.26660
1093.931, 41.38672
1094.413, 41.89551
1094.895, 45.11035
1095.377, 50.67578
1095.859, 59.77344
1096.341, 70.83691
1096.823, 68.31445
1097.306, 52.94141
1097.788, 45.71387
1098.270, 52.62793
1098.752, 55.07227
1099.234, 36.52051
1099.716, 13.14160
1100.198, 14.41113
1100.680, 26.37988
1101.163, 10.71680
1101.645, 16.08984
1102.127, 3.475586
1102.609, 62.99805
1103.091, 86.48340
1103.573, 39.49512
1104.055, 12.82031
1104.537, 16.12988
1105.020, 0.1894530
1105.502, 16.61719
1105.984, 29.96777
1106.466, 31.29785
1106.948, 26.64941
1107.430, 32.78027
1107.912, 51.98633
1108.394, 60.19336
1108.876, 35.91797
1109.359, 16.63672
1109.841, 17.55469
1110.323, 26.26367
1110.805, 44.96191
1111.287, 60.45410
1111.769, 52.88379
1112.251, 26.79980
1112.733, 9.581055
1113.215, 4.657227
1113.698, 6.287109
1114.180, 16.84766
1114.662, 30.42480
1115.144, 56.36230
1115.626, 68.79199
1116.108, 39.45605
1116.590, 4.009766
1117.072, 11.07812
1117.555, 17.99707
1118.037, 28.99023
1118.519, 17.74512
1119.001, 12.33691
1119.483, 17.10156
1119.965, 20.16504
1120.447, 15.75781
1120.929, 12.62305
1121.411, 19.58887
1121.894, 34.81836
1122.376, 58.48828
1122.858, 85.27344
1123.340, 99.74707
1123.822, 99.78027
1124.304, 68.42188
1124.786, 9.106445
1125.268, 23.69824
1125.750, 2.328125
1126.233, 42.89453
1126.715, 47.39746
1127.197, 37.45215
1127.679, 46.77344
1128.161, 60.12500
1128.643, 43.71777
1129.125, 10.84082
1129.607, 4.531250
1130.090, 33.86035
1130.572, 66.57910
1131.054, 91.88574
1131.536, 108.3457
1132.018, 109.1133
1132.500, 104.2764
1132.982, 99.38867
1133.464, 94.59375
1133.947, 93.12109
1134.429, 91.58203
1134.911, 75.45703
1135.393, 35.26465
1135.875, 7.343750
1136.357, 12.52539
1136.839, 7.258789
1137.321, 50.90820
1137.803, 97.46777
1138.286, 85.85254
1138.768, 54.18262
1139.250, 61.76855
1139.732, 102.3721
1140.214, 114.2109
1140.696, 91.71094
1141.178, 78.95312
1141.660, 79.96387
1142.142, 86.21094
1142.625, 95.93457
1143.107, 91.95703
1143.589, 57.43457
1144.071, 19.58203
1144.553, 36.66992
1145.035, 85.24609
1145.517, 85.86523
1145.999, 57.15332
1146.482, 69.14453
1146.964, 115.9404
1147.446, 126.7627
1147.928, 77.71582
1148.410, 28.04102
1148.892, 20.06152
1149.374, 31.66797
1149.856, 53.97266
1150.339, 76.38086
1150.821, 87.11328
1151.303, 91.46191
1151.785, 98.77930
1152.267, 108.7939
1152.749, 114.8643
1153.231, 114.8115
1153.713, 112.9814
1154.195, 112.6973
1154.677, 107.6025
1155.160, 91.93750
1155.642, 74.53711
1156.124, 57.07324
1156.606, 43.91113
1157.088, 41.23438
1157.570, 48.80566
1158.052, 68.10254
1158.534, 107.6055
1159.017, 116.1982
1159.499, 84.19141
1159.981, 58.12988
1160.463, 49.94238
1160.945, 52.14551
1161.427, 60.69922
1161.909, 68.19629
1162.391, 62.77246
1162.874, 50.16309
1163.356, 46.93945
1163.838, 48.40625
1164.320, 36.00195
1164.802, 13.05371
1165.284, 0.3408200
1165.766, 4.200195
1166.248, 15.71680
1166.730, 30.15625
1167.213, 47.10547
1167.695, 75.21582
1168.177, 96.52344
1168.659, 87.08789
1169.141, 66.75000
1169.623, 60.64160
1170.105, 66.53711
1170.587, 71.49023
1171.069, 74.31836
1171.552, 67.46973
1172.034, 39.55469
1172.516, 17.50195
1172.998, 3.438477
1173.480, 1.479492
1173.962, 4.205078
1174.444, 17.98828
1174.926, 40.67773
1175.409, 68.37207
1175.891, 82.35156
1176.373, 82.76953
1176.855, 72.10938
1177.337, 50.60352
1177.819, 39.19043
1178.301, 41.30762
1178.783, 33.02637
1179.266, 2.566406
1179.748, 12.95605
1180.230, 37.18066
1180.712, 104.3145
1181.194, 102.2451
1181.676, 67.00781
1182.158, 55.25781
1182.640, 60.81641
1183.122, 58.21289
1183.604, 50.31250
1184.087, 56.86719
1184.569, 89.24805
1185.051, 107.3301
1185.533, 84.12109
1186.015, 54.86035
1186.497, 24.49219
1186.979, 3.084961
1187.461, 4.191406
1187.944, 13.39648
1188.426, 5.008789
1188.908, 15.13086
1189.390, 7.466797
1189.872, 42.59082
1190.354, 63.25781
1190.836, 47.86914
1191.318, 31.56543
1191.801, 20.54102
1192.283, 22.54102
1192.765, 43.51367
1193.247, 67.63965
1193.729, 75.62207
1194.211, 71.44531
1194.693, 60.61230
1195.175, 47.05469
1195.657, 39.32617
1196.140, 38.74121
1196.622, 50.37598
1197.104, 71.42871
1197.586, 85.09473
1198.068, 82.77930
1198.550, 85.04004
1199.032, 123.7256
1199.514, 146.0117
1199.996, 101.7217
1200.479, 49.94531
1200.961, 37.48730
1201.443, 47.40918
1201.925, 51.06641
1202.407, 49.18066
1202.889, 59.50293
1203.371, 87.55176
1203.853, 111.2871
1204.336, 133.9775
1204.818, 140.1973
1205.300, 124.7002
1205.782, 100.5625
1206.264, 73.25879
1206.746, 50.65137
1207.228, 42.57129
1207.710, 45.05664
1208.193, 49.59180
1208.675, 55.76953
1209.157, 64.69531
1209.639, 74.27734
1210.121, 82.83203
1210.603, 86.99805
1211.085, 70.04297
1211.567, 22.90234
1212.049, 2.095703
1212.531, 45.21289
1213.014, 91.90039
1213.496, 105.8301
1213.978, 98.62012
1214.460, 59.73145
1214.942, 18.00391
1215.424, 12.78223
1215.906, 34.65332
1216.388, 40.56641
1216.871, 33.70508
1217.353, 28.49707
1217.835, 24.20020
1218.317, 25.61426
1218.799, 34.52344
1219.281, 41.03125
1219.763, 40.92188
1220.245, 39.13867
1220.728, 40.50391
1221.210, 41.60156
1221.692, 30.32617
1222.174, 18.13867
1222.656, 34.64746
1223.138, 66.01562
1223.620, 87.62207
1224.102, 95.40820
1224.584, 86.45215
1225.067, 62.14062
1225.549, 44.22363
1226.031, 45.11426
1226.513, 47.79395
1226.995, 51.07617
1227.477, 49.20410
1227.959, 26.41113
1228.441, 12.22949
1228.923, 38.90430
1229.406, 76.02637
1229.888, 66.52832
1230.370, 16.99805
1230.852, 3.969727
1231.334, 29.19336
1231.816, 50.61230
1232.298, 64.95215
1232.780, 53.20117
1233.263, 14.01758
1233.745, 8.315430
1234.227, 11.89355
1234.709, 39.75781
1235.191, 36.34570
1235.673, 24.95508
1236.155, 26.14844
1236.637, 38.16797
1237.120, 74.75977
1237.602, 110.9004
1238.084, 95.30762
1238.566, 30.05664
1239.048, 2.012695
1239.530, 7.176758
1240.012, 21.55273
1240.494, 41.73242
1240.976, 62.24805
1241.458, 73.75391
1241.941, 75.65430
1242.423, 40.15332
1242.905, 0.0000000E+00
