169.713200 0.000000
170.195317 29.638670
170.677433 45.218750
171.159550 64.845703
171.641667 38.542969
172.123784 5.981445
172.605900 9.460938
173.088017 3.176758
173.570134 11.025390
174.052250 33.392578
174.534367 57.795898
175.016484 74.044922
175.498601 75.297852
175.980717 66.481453
176.462834 59.847660
176.944951 50.268551
177.427067 53.415039
177.909184 91.347656
178.391301 139.890594
178.873418 162.363297
179.355534 132.146500
179.837651 72.851563
180.319768 57.662109
180.801884 113.621101
181.284001 167.378906
181.766118 191.432602
182.248235 201.433594
182.730351 218.171906
183.212468 254.593796
183.694585 299.587891
184.176701 319.314514
184.658818 297.146515
185.140935 277.317413
185.623051 272.405304
186.105168 275.666992
186.587285 279.658203
187.069402 281.001007
187.551518 280.892609
188.033635 282.440399
188.515752 283.564514
188.997868 290.396515
189.479985 307.371094
189.962102 328.208008
190.444219 346.021515
190.926335 357.162109
191.408452 365.856415
191.890569 384.940399
192.372685 432.265594
192.854802 456.808594
193.336919 440.477509
193.819036 406.129913
194.301152 370.415009
194.783269 339.561493
195.265386 320.448212
195.747502 332.263702
196.229619 403.904297
196.711736 452.262695
197.193853 452.485413
197.675969 436.800812
198.158086 434.020508
198.640203 453.696289
199.122319 482.656189
199.604436 495.010712
200.086553 476.822296
200.568670 470.035187
201.050786 487.483398
201.532903 510.052704
202.015020 523.208984
202.497136 523.023376
202.979253 514.840820
203.461370 507.674805
203.943487 504.966797
204.425603 494.959015
204.907720 463.930695
205.389837 435.555695
205.871953 432.253906
206.354070 455.577087
206.836187 482.872986
207.318304 480.554688
207.800420 431.924805
208.282537 395.790009
208.764654 375.033203
209.246770 363.033203
209.728887 360.730499
210.211004 365.696289
210.693120 369.528290
211.175237 359.360413
211.657354 326.109406
212.139471 312.898407
212.621587 338.156189
213.103704 366.191406
213.585821 383.406189
214.067937 387.418915
214.550054 379.918915
215.032171 359.146515
215.514288 320.793915
215.996404 298.617188
216.478521 302.830109
216.960638 313.438507
217.442754 330.617188
217.924871 348.991211
218.406988 356.372986
218.889105 337.841797
219.371221 291.847687
219.853338 276.698212
220.335455 331.688507
220.817571 380.802704
221.299688 407.065399
221.781805 411.522491
222.263922 397.382813
222.746038 362.640594
223.228155 311.375000
223.710272 290.093811
224.192388 337.957001
224.674505 374.684601
225.156622 379.806610
225.638739 364.193390
226.120855 344.084015
226.602972 328.149414
227.085089 316.250000
227.567205 305.334015
228.049322 303.386688
228.531439 298.046906
229.013556 282.334015
229.495672 264.174805
229.977789 252.599594
230.459906 251.477493
230.942022 258.419891
231.424139 265.877899
231.906256 280.029297
232.388373 282.550812
232.870489 260.658203
233.352606 233.698196
233.834723 219.828094
234.316839 224.787094
234.798956 238.451202
235.281073 243.207993
235.763189 234.983398
236.245306 227.378906
236.727423 215.544907
237.209540 208.692398
237.691656 217.042999
238.173773 240.804703
238.655890 266.963898
239.138006 279.628906
239.620123 276.259796
240.102240 268.422913
240.584357 252.296906
241.066473 235.203094
241.548590 215.789093
242.030707 196.914993
242.512823 187.950195
242.994940 203.512695
243.477057 247.118195
243.959174 273.147491
244.441290 266.862305
244.923407 255.821304
245.405524 240.126007
245.887640 227.003906
246.369757 233.783203
246.851874 286.477509
247.333991 375.003906
247.816107 402.290985
248.298224 321.188507
248.780341 238.578094
249.262457 188.657196
249.744574 162.526398
250.226691 145.355499
250.708808 130.433594
251.190924 117.849602
251.673041 108.823196
252.155158 106.938499
252.637274 101.165001
253.119391 80.429688
253.601508 57.414059
254.083625 48.163090
254.565741 60.641602
255.047858 80.471680
255.529975 81.039063
256.012091 54.050781
256.494208 39.396481
256.976325 63.587891
257.458442 95.943359
257.940558 114.024399
258.422675 112.819298
258.904792 105.349602
259.386908 103.205101
259.869025 106.383797
260.351142 116.259804
260.833258 145.638702
261.315375 170.422897
261.797492 169.191406
262.279609 142.945297
262.761725 117.000999
263.243842 109.461899
263.725959 117.967796
264.208075 130.396500
264.690192 151.428696
265.172309 166.715805
265.654426 162.156204
266.136542 143.069305
266.618659 126.966797
267.100776 120.975601
267.582892 123.729500
268.065009 135.393600
268.547126 159.822296
269.029243 180.512695
269.511359 182.085007
269.993476 172.309601
270.475593 163.206100
270.957709 155.115204
271.439826 151.164993
271.921943 156.805695
272.404060 172.329102
272.886176 188.252899
273.368293 200.869095
273.850410 210.294907
274.332526 216.521500
274.814643 216.508804
275.296760 218.876999
275.778877 228.244095
276.260993 244.461899
276.743110 269.248993
277.225227 308.356415
277.707343 349.243195
278.189460 372.358398
278.671577 378.213898
279.153694 371.317413
279.635810 342.258789
280.117927 303.840790
280.600044 278.411102
281.082160 271.308594
281.564277 274.304688
282.046394 279.558594
282.528511 287.191406
283.010627 295.320313
283.492744 305.206085
283.974861 313.349609
284.456977 316.699188
284.939094 315.237305
285.421211 310.722687
285.903327 303.389587
286.385444 293.415009
286.867561 287.736298
287.349678 284.037109
287.831794 286.666992
288.313911 303.300812
288.796028 326.840790
289.278144 340.356415
289.760261 331.848602
290.242378 309.452087
290.724495 305.845703
291.206611 344.830109
291.688728 370.419891
292.170845 365.161102
292.652961 342.963898
293.135078 320.917999
293.617195 306.329102
294.099312 298.447296
294.581428 294.973602
295.063545 297.312500
295.545662 299.403290
296.027778 310.504913
296.509895 316.066406
296.992012 299.618195
297.474129 263.074188
297.956245 226.439499
298.438362 211.814499
298.920479 223.810501
299.402595 225.748001
299.884712 206.454102
300.366829 189.069305
300.848946 181.701202
301.331062 181.247101
301.813179 181.623001
302.295296 177.830093
302.777412 171.883804
303.259529 175.097702
303.741646 199.660202
304.223763 215.051804
304.705879 209.050797
305.187996 194.318405
305.670113 183.114304
306.152229 179.839798
306.634346 183.840805
307.116463 199.390594
307.598580 235.198196
308.080696 249.634796
308.562813 203.765594
309.044930 156.105499
309.527046 145.946304
310.009163 178.142593
310.491280 218.880905
310.973396 235.887695
311.455513 234.559601
311.937630 237.699203
312.419747 255.222702
312.901863 264.383789
313.383980 244.503906
313.866097 205.650406
314.348213 174.461899
314.830330 169.550797
315.312447 176.696304
315.794564 168.298798
316.276680 141.038101
316.758797 117.912102
317.240914 114.241203
317.723030 121.986298
318.205147 127.170898
318.687264 124.759804
319.169381 125.614304
319.651497 146.311493
320.133614 180.009796
320.615731 194.221695
321.097847 173.144501
321.579964 135.245102
322.062081 108.047897
322.544198 91.376953
323.026314 81.252930
323.508431 80.437500
323.990548 83.895508
324.472664 85.430656
324.954781 84.017578
325.436898 80.895508
325.919015 76.636719
326.401131 71.036133
326.883248 68.656250
327.365365 70.181641
327.847481 74.112297
328.329598 82.247070
328.811715 92.462891
329.293832 97.908203
329.775948 93.625000
330.258065 83.181641
330.740182 83.007813
331.222298 103.465797
331.704415 121.424797
332.186532 137.353500
332.668649 148.372101
333.150765 150.220703
333.632882 141.998993
334.114999 128.518600
334.597115 116.788101
335.079232 108.069298
335.561349 97.810547
336.043465 83.590820
336.525582 70.170898
337.007699 59.819340
337.489816 52.556641
337.971932 47.997070
338.454049 47.626949
338.936166 49.975590
339.418282 40.392578
339.900399 5.187500
340.382516 21.400391
340.864633 28.583010
341.346749 22.926760
341.828866 9.996094
342.310983 9.958008
342.793099 27.682619
343.275216 26.844730
343.757333 4.591797
344.239450 16.551760
344.721566 39.517578
345.203683 52.089840
345.685800 35.984379
346.167916 8.192383
346.650033 40.896481
347.132150 27.955080
347.614267 15.321290
348.096383 48.647461
348.578500 69.298828
349.060617 76.222656
349.542733 56.970699
350.024850 21.726561
350.506967 1.587891
350.989084 16.867189
351.471200 37.341801
351.953317 39.187500
352.435434 24.385740
352.917550 1.681641
353.399667 29.262699
353.881784 60.479488
354.363901 67.398438
354.846017 36.130859
355.328134 15.216800
355.810251 28.044920
356.292367 51.145512
356.774484 52.437500
357.256601 26.371090
357.738718 2.651367
358.220834 6.328125
358.702951 21.510740
359.185068 41.260738
359.667184 52.997070
360.149301 57.870121
360.631418 51.153320
361.113535 38.208012
361.595651 29.322269
362.077768 30.548830
362.559885 40.224609
363.042001 53.170898
363.524118 77.306641
364.006235 91.323242
364.488351 89.458977
364.970468 79.785156
365.452585 70.520508
365.934702 62.826172
366.416818 49.181641
366.898935 8.295898
367.381052 64.673828
367.863168 84.100594
368.345285 0.709961
368.827402 83.658203
369.309519 107.566399
369.791635 88.511719
370.273752 65.957031
370.755869 51.683590
371.237985 48.787109
371.720102 70.095703
372.202219 118.942398
372.684336 164.122101
373.166452 195.560501
373.648569 211.270493
374.130686 210.841797
374.612802 190.859406
375.094919 167.913101
375.577036 142.796906
376.059153 120.245102
376.541269 116.358398
377.023386 136.029297
377.505503 165.189499
377.987619 190.213898
378.469736 206.210007
378.951853 211.975601
379.433970 199.360397
379.916086 187.231400
380.398203 191.903305
380.880320 206.490204
381.362436 208.658203
381.844553 184.558594
382.326670 146.697296
382.808787 133.626999
383.290903 176.384796
383.773020 205.960007
384.255137 212.297897
384.737253 207.640594
385.219370 201.444305
385.701487 197.348602
386.183604 197.570297
386.665720 201.422897
387.147837 208.497101
387.629954 212.405304
388.112070 210.078094
388.594187 207.983398
389.076304 208.120102
389.558420 209.777298
390.040537 210.706100
390.522654 207.964798
391.004771 209.801804
391.486887 235.965805
391.969004 290.471710
392.451121 328.559601
392.933237 331.292999
393.415354 318.280304
393.897471 305.919891
394.379588 294.796906
394.861704 289.549805
395.343821 299.978485
395.825938 314.909210
396.308054 314.525391
396.790171 296.703094
397.272288 272.039093
397.754405 240.265594
398.236521 208.195297
398.718638 205.865204
399.200755 264.464813
399.682871 313.457001
400.164988 317.194305
400.647105 295.260712
401.129222 280.719696
401.611338 284.412109
402.093455 294.742188
402.575572 295.018585
403.057688 281.481415
403.539805 271.848602
404.021922 268.743195
404.504039 266.576202
404.986155 264.625000
405.468272 261.135712
405.950389 252.759796
406.432505 237.520493
406.914622 219.085907
407.396739 210.312500
407.878856 216.569305
408.360972 222.908203
408.843089 231.634796
409.325206 233.645493
409.807322 218.747101
410.289439 187.252899
410.771556 155.777298
411.253673 136.020493
411.735789 126.931602
412.217906 128.387695
412.700023 146.728500
413.182139 160.356400
413.664256 147.692398
414.146373 119.994102
414.628489 99.526367
415.110606 95.305656
415.592723 92.769531
416.074840 73.296883
416.556956 47.035160
417.039073 48.271481
417.521190 94.093750
418.003306 152.365204
418.485423 174.004898
418.967540 146.077103
419.449657 123.116203
419.931773 108.618202
420.413890 98.236328
420.896007 87.554688
421.378123 78.040039
421.860240 76.378906
422.342357 88.122070
422.824474 108.353500
423.306590 115.457001
423.788707 100.626999
424.270824 85.675781
424.752940 67.413094
425.235057 49.950199
425.717174 46.123051
426.199291 59.979488
426.681407 71.773438
427.163524 59.482422
427.645641 26.259769
428.127757 13.823240
428.609874 34.271481
429.091991 52.272461
429.574108 40.384769
430.056224 16.919920
430.538341 12.062500
431.020458 42.700199
431.502574 71.988281
431.984691 58.809570
432.466808 17.083010
432.948925 2.552734
433.431041 36.856449
433.913158 76.826172
434.395275 64.025391
434.877391 9.263672
435.359508 47.658199
435.841625 14.883790
436.323742 26.110350
436.805858 35.762699
437.287975 21.705080
437.770092 8.012695
438.252208 6.672852
438.734325 15.407230
439.216442 30.246090
439.698558 68.590820
440.180675 80.657227
440.662792 40.247070
441.144909 2.542969
441.627025 10.964840
442.109142 10.485350
442.591259 29.571289
443.073375 15.332030
443.555492 17.542971
444.037609 3.120117
444.519726 84.227539
445.001842 148.193405
445.483959 124.840797
445.966076 72.797852
446.448192 51.268551
446.930309 71.646477
447.412426 92.514648
447.894543 84.533203
448.376659 59.841801
448.858776 42.897461
449.340893 36.871090
449.823009 38.590820
450.305126 48.896481
450.787243 65.861328
451.269360 71.284180
451.751476 54.055660
452.233593 39.135738
452.715710 32.929691
453.197826 34.836910
453.679943 49.948238
454.162060 77.643547
454.644177 98.640617
455.126293 83.572273
455.608410 21.121090
456.090527 12.134770
456.572643 10.324220
457.054760 36.282230
457.536877 53.070309
458.018994 62.594730
458.501110 67.958008
458.983227 69.257813
459.465344 72.741211
459.947460 92.343750
460.429577 128.280304
460.911694 150.093796
461.393811 147.482407
461.875927 134.997101
462.358044 123.680702
462.840161 113.648399
463.322277 105.432602
463.804394 97.141602
464.286511 91.448242
464.768627 91.469727
465.250744 97.160156
465.732861 109.020500
466.214978 128.434601
466.697094 148.658203
467.179211 158.638702
467.661328 152.660202
468.143444 148.876999
468.625561 148.823196
469.107678 149.504898
469.589795 148.853500
470.071911 147.395493
470.554028 148.416000
471.036145 155.228500
471.518261 162.497101
472.000378 150.256805
472.482495 104.533203
472.964612 77.059570
473.446728 98.453117
473.928845 128.254898
474.410962 140.755905
474.893078 135.491196
475.375195 127.578102
475.857312 123.574203
476.339429 122.606400
476.821545 125.585899
477.303662 132.666000
477.785779 136.320297
478.267895 132.681595
478.750012 122.115196
479.232129 109.356400
479.714246 92.212891
480.196362 79.625977
480.678479 76.365227
481.160596 76.318359
481.642712 72.257813
482.124829 65.041992
482.606946 61.221680
483.089063 64.787109
483.571179 76.845703
484.053296 105.896500
484.535413 179.725601
485.017529 225.026398
485.499646 215.522507
485.981763 184.877899
486.463880 154.086899
486.945996 128.531204
487.428113 116.128899
487.910230 133.580093
488.392346 168.343796
488.874463 181.327103
489.356580 169.484406
489.838696 145.745102
490.320813 99.921883
490.802930 55.685551
491.285047 64.743156
491.767163 148.269501
492.249280 210.186493
492.731397 195.180695
493.213513 151.676804
493.695630 142.735397
494.177747 170.637695
494.659864 195.761703
495.141980 187.138702
495.624097 151.444305
496.106214 132.110397
496.588330 143.123001
497.070447 151.270493
497.552564 155.520493
498.034681 154.057602
498.516797 142.865204
498.998914 120.398399
499.481031 103.110397
499.963147 116.946297
500.445264 148.801804
500.927381 142.637695
501.409498 86.783203
501.891614 37.725590
502.373731 16.671881
502.855848 17.720699
503.337964 36.917969
503.820081 81.698242
504.302198 112.405296
504.784315 96.989258
505.266431 69.827148
505.748548 78.623047
506.230665 121.265602
506.712781 153.299805
507.194898 143.106400
507.677015 102.057602
508.159132 80.011719
508.641248 99.705078
509.123365 105.053703
509.605482 80.151367
510.087598 50.216801
510.569715 30.713869
511.051832 24.199221
511.533949 29.343750
512.016065 51.060551
512.498182 79.522461
512.980299 83.440430
513.462415 56.376949
513.944532 38.685551
514.426649 55.088871
514.908765 83.308594
515.390882 94.477539
515.872999 87.480469
516.355116 77.054688
516.837232 58.881840
517.319349 45.586910
517.801466 56.647461
518.283582 85.256844
518.765699 102.731400
519.247816 93.254883
519.729933 66.055656
520.212049 42.082031
520.694166 15.835940
521.176283 3.881836
521.658399 20.867189
522.140516 36.717770
522.622633 29.133789
523.104750 7.003906
523.586866 3.633789
524.068983 14.044920
524.551100 42.766602
525.033216 52.904301
525.515333 44.598629
525.997450 40.407230
526.479567 48.914059
526.961683 57.850590
527.443800 51.531250
527.925917 32.027340
528.408033 16.832029
528.890150 8.467773
529.372267 4.959961
529.854384 8.843750
530.336500 16.040039
530.818617 18.125980
531.300734 12.381840
531.782850 4.061523
532.264967 0.425781
532.747084 1.801758
533.229201 5.520508
533.711317 41.278320
534.193434 62.620121
534.675551 41.380859
535.157667 4.109375
535.639784 11.850590
536.121901 5.357422
536.604018 32.686520
537.086134 52.444340
537.568251 65.200203
538.050368 72.076172
538.532484 72.923828
539.014601 69.875000
539.496718 63.769531
539.978835 54.871090
540.460951 45.126949
540.943068 35.069340
541.425185 23.660160
541.907301 0.953125
542.389418 17.068359
542.871535 7.596680
543.353651 25.837891
543.835768 52.952148
544.317885 45.916988
544.800002 16.748051
545.282118 24.248051
545.764235 90.547852
546.246352 132.730499
546.728468 115.060501
547.210585 75.511719
547.692702 32.908199
548.174819 9.083008
548.656935 31.104490
549.139052 5.306641
549.621169 32.072269
550.103285 36.901371
550.585402 16.094730
551.067519 4.675781
551.549636 17.894529
552.031752 39.092770
552.513869 38.750000
552.995986 1.310547
553.478102 4.107422
553.960219 70.183594
554.442336 120.878899
554.924453 83.313477
555.406569 1.978516
555.888686 51.648441
556.370803 51.303711
556.852919 26.309570
557.335036 8.450195
557.817153 3.208008
558.299270 16.998051
558.781386 34.969730
559.263503 51.162109
559.745620 63.444340
560.227736 69.897461
560.709853 65.610352
561.191970 38.560551
561.674087 22.648439
562.156203 40.816410
562.638320 67.286133
563.120437 71.252930
563.602553 53.124020
564.084670 36.814449
564.566787 40.706051
565.048904 58.171879
565.531020 59.378910
566.013137 28.186520
566.495254 21.615231
566.977370 84.634773
567.459487 146.984406
567.941604 159.710907
568.423720 129.789993
568.905837 99.294922
569.387954 86.712891
569.870071 80.869141
570.352187 66.732422
570.834304 48.856449
571.316421 46.895512
571.798537 68.365227
572.280654 91.415039
572.762771 86.253906
573.244888 47.205078
573.727004 33.329102
574.209121 69.433594
574.691238 99.568359
575.173354 102.423798
575.655471 96.049797
576.137588 106.024399
576.619705 135.611298
577.101821 157.689499
577.583938 136.319305
578.066055 88.064453
578.548171 70.805656
579.030288 87.872070
579.512405 117.225601
579.994522 159.248993
580.476638 197.523407
580.958755 193.023407
581.440872 133.128906
581.922988 92.312500
582.405105 93.835938
582.887222 104.767601
583.369339 102.928703
583.851455 93.183594
584.333572 91.727539
584.815689 104.827103
585.297805 122.767601
585.779922 132.618195
586.262039 133.623001
586.744156 139.572296
587.226272 157.786102
587.708389 169.541000
588.190506 158.806595
588.672622 135.789993
589.154739 117.136703
589.636856 107.335899
590.118973 95.268547
590.601089 66.782227
591.083206 38.359379
591.565323 33.238281
592.047439 50.461910
592.529556 74.625000
593.011673 97.136719
593.493789 113.079102
593.975906 107.862297
594.458023 65.237297
594.940140 37.888672
595.422256 35.555660
595.904373 44.976559
596.386490 66.252930
596.868606 94.134773
597.350723 117.483398
597.832840 133.067398
598.314957 140.906204
598.797073 137.494095
599.279190 126.578102
599.761307 115.875999
600.243423 106.153297
600.725540 103.773399
601.207657 115.353500
601.689774 137.183594
602.171890 145.279297
602.654007 124.802696
603.136124 110.390602
603.618240 106.584000
604.100357 108.002899
604.582474 114.718803
605.064591 123.580101
605.546707 125.080101
606.028824 109.270500
606.510941 86.880859
606.993057 76.432617
607.475174 76.468750
607.957291 84.861328
608.439408 104.569298
608.921524 118.807602
609.403641 107.143600
609.885758 69.382813
610.367874 49.969730
610.849991 52.886719
611.332108 66.654297
611.814225 109.102501
612.296341 149.127899
612.778458 149.490204
613.260575 111.279297
613.742691 66.999023
614.224808 44.330078
614.706925 40.834961
615.189042 52.149410
615.671158 78.827148
616.153275 93.362297
616.635392 84.965820
617.117508 66.656250
617.599625 49.157230
618.081742 32.468750
618.563858 28.709961
619.045975 53.443359
619.528092 73.712891
620.010209 75.141602
620.492325 65.749023
620.974442 52.694340
621.456559 39.296879
621.938675 31.009769
622.420792 33.340820
622.902909 44.441410
623.385026 57.971680
623.867142 74.472656
624.349259 90.312500
624.831376 105.533203
625.313492 118.289101
625.795609 129.748001
626.277726 139.875000
626.759843 132.752899
627.241959 72.131844
627.724076 30.530270
628.206193 72.247070
628.688309 145.193405
629.170426 168.347702
629.652543 126.073196
630.134660 65.489258
630.616776 29.621090
631.098893 15.574220
631.581010 8.215820
632.063126 9.726563
632.545243 8.826172
633.027360 2.533203
633.509477 13.225590
633.991593 12.049800
634.473710 0.583984
634.955827 21.875000
635.437943 76.287109
635.920060 112.850601
636.402177 79.922852
636.884294 18.869141
637.366410 0.725586
637.848527 38.673828
638.330644 83.670898
638.812760 84.742188
639.294877 50.695309
639.776994 39.421879
640.259111 62.198238
640.741227 65.925781
641.223344 16.250980
641.705461 39.982422
642.187577 48.892578
642.669694 14.836910
643.151811 8.747070
643.633927 2.788086
644.116044 12.873050
644.598161 5.242188
645.080278 35.151371
645.562394 47.919922
646.044511 39.578121
646.526628 33.603519
647.008744 54.585941
647.490861 94.481453
647.972978 113.440399
648.455095 106.084999
648.937211 98.718750
649.419328 97.624023
649.901445 99.199219
650.383561 102.384804
650.865678 106.223602
651.347795 103.208000
651.829912 85.269531
652.312028 67.972656
652.794145 56.685551
653.276262 51.250000
653.758378 51.922852
654.240495 58.347660
654.722612 69.981453
655.204729 88.806641
655.686845 109.332001
656.168962 107.836899
656.651079 77.833008
657.133195 68.848633
657.615312 106.828102
658.097429 146.085907
658.579546 136.840805
659.061662 91.046883
659.543779 62.013672
660.025896 63.451172
660.508012 71.088867
660.990129 79.287109
661.472246 87.995117
661.954363 101.194298
662.436479 115.862297
662.918596 118.492203
663.400713 96.781250
663.882829 67.114258
664.364946 70.543953
664.847063 108.535202
665.329180 129.577103
665.811296 122.224602
666.293413 105.141602
666.775530 89.840820
667.257646 76.058594
667.739763 62.107422
668.221880 45.368160
668.703996 32.756840
669.186113 17.100590
669.668230 13.034180
670.150347 46.586910
670.632463 101.579102
671.114580 131.085907
671.596697 109.546898
672.078813 71.668953
672.560930 64.540039
673.043047 85.182617
673.525164 117.747101
674.007280 165.410202
674.489397 196.805695
674.971514 188.859406
675.453630 155.501007
675.935747 132.844696
676.417864 126.524399
676.899981 118.403297
677.382097 107.115196
677.864214 94.843750
678.346331 77.024406
678.828447 61.012699
679.310564 60.162109
679.792681 78.731453
680.274798 102.529297
680.756914 130.448196
681.239031 150.481400
681.721148 123.328102
682.203264 51.625000
682.685381 2.863281
683.167498 9.129883
683.649615 42.434570
684.131731 59.889648
684.613848 58.204102
685.095965 57.948238
685.578081 61.530270
686.060198 63.581051
686.542315 60.833981
687.024432 57.147461
687.506548 54.951172
687.988665 55.192379
688.470782 61.705078
688.952898 87.043953
689.435015 111.842796
689.917132 108.750999
690.399249 86.725594
690.881365 73.206047
691.363482 75.369141
691.845599 80.087891
692.327715 72.426758
692.809832 55.297852
693.291949 58.857422
693.774065 98.239258
694.256182 124.667000
694.738299 117.684601
695.220416 105.261703
695.702532 105.039101
696.184649 115.496101
696.666766 130.140594
697.148882 158.844696
697.630999 174.175797
698.113116 144.384796
698.595233 102.681602
699.077349 100.206100
699.559466 130.694305
700.041583 142.177704
700.523699 100.667000
701.005816 37.634769
701.487933 21.373051
701.970050 53.793949
702.452166 90.398438
702.934283 133.110397
703.416400 165.534195
703.898516 176.926804
704.380633 168.443405
704.862750 141.344696
705.344867 80.856453
705.826983 48.743160
706.309100 74.637703
706.791217 109.799797
707.273333 128.876999
707.755450 135.691406
708.237567 141.104507
708.719684 148.276398
709.201800 150.218796
709.683917 137.655304
710.166034 113.383797
710.648150 78.597656
711.130267 34.968750
711.612384 12.416990
712.094501 24.889650
712.576617 47.839840
713.058734 49.036129
713.540851 26.610350
714.022967 22.450199
714.505084 48.897461
714.987201 77.279297
715.469318 115.142601
715.951434 144.526398
716.433551 146.486298
716.915668 125.161102
717.397784 99.630859
717.879901 69.707031
718.362018 49.457031
718.844135 57.124020
719.326251 79.325203
719.808368 94.081047
720.290485 98.541992
720.772601 100.149399
721.254718 103.990196
721.736835 109.003899
722.218951 108.126999
722.701068 98.870117
723.183185 93.328117
723.665302 97.533203
724.147418 97.602539
724.629535 77.973633
725.111652 51.692379
725.593768 47.876949
726.075885 77.163094
726.558002 91.995117
727.040119 70.120117
727.522235 45.358398
728.004352 38.144531
728.486469 41.759769
728.968585 42.252930
729.450702 36.736328
729.932819 34.343750
730.414936 48.273441
730.897052 69.166023
731.379169 71.972656
731.861286 59.180660
732.343402 57.713871
732.825519 79.399406
733.307636 100.251999
733.789753 92.478523
734.271869 59.112301
734.753986 41.362301
735.236103 46.668949
735.718219 55.977539
736.200336 84.097656
736.682453 99.828117
737.164570 69.440430
737.646686 11.689450
738.128803 21.643551
738.610920 11.692380
739.093036 12.686520
739.575153 44.216801
740.057270 75.508789
740.539387 101.202103
741.021503 118.557602
741.503620 120.082001
741.985737 102.158203
742.467853 77.105469
742.949970 62.474609
743.432087 57.495121
743.914204 50.640621
744.396320 41.232422
744.878437 31.812500
745.360554 21.025391
745.842670 16.156250
746.324787 29.979490
746.806904 65.774406
747.289020 89.457031
747.771137 101.300797
748.253254 101.706100
748.735371 80.792969
749.217487 55.900391
749.699604 41.649410
750.181721 38.420898
750.663837 39.409180
751.145954 41.630859
751.628071 47.739262
752.110188 63.230469
752.592304 81.215820
753.074421 91.129883
753.556538 93.088867
754.038654 83.964844
754.520771 60.278320
755.002888 34.400391
755.485005 34.812500
755.967121 66.085938
756.449238 78.857422
756.931355 64.658203
757.413471 50.982422
757.895588 49.628910
758.377705 55.292969
758.859822 65.179688
759.341938 82.008789
759.824055 78.133789
760.306172 24.462891
760.788288 19.421881
761.270405 27.953119
761.752522 16.417971
762.234639 2.922852
762.716755 25.669920
763.198872 47.166019
763.680989 67.888672
764.163105 80.638672
764.645222 73.696289
765.127339 52.901371
765.609456 28.634769
766.091572 4.064453
766.573689 9.368164
767.055806 3.482422
767.537922 12.920900
768.020039 19.663090
768.502156 13.872070
768.984273 16.618160
769.466389 32.731449
769.948506 47.980469
770.430623 59.531250
770.912739 64.609383
771.394856 56.701172
771.876973 34.448238
772.359089 16.671881
772.841206 0.407227
773.323323 5.435547
773.805440 18.056641
774.287556 47.794922
774.769673 56.910160
775.251790 47.131840
775.733906 43.281250
776.216023 63.165039
776.698140 85.515617
777.180257 87.423828
777.662373 73.320313
778.144490 48.383789
778.626607 15.752930
779.108723 11.553710
779.590840 26.870119
780.072957 28.354490
780.555074 5.552734
781.037190 46.856449
781.519307 65.890617
782.001424 37.460941
782.483540 13.488280
782.965657 17.084961
783.447774 31.504881
783.929891 35.390621
784.412007 28.516600
784.894124 22.087891
785.376241 10.803710
785.858357 7.494141
786.340474 22.157230
786.822591 41.093750
787.304708 53.913090
787.786824 59.981449
788.268941 63.645512
788.751058 68.994141
789.233174 64.988281
789.715291 28.142580
790.197408 17.023439
790.679525 28.762699
791.161641 10.138670
791.643758 12.016600
792.125875 26.246090
792.607991 36.590820
793.090108 50.551762
793.572225 66.354492
794.054342 58.970699
794.536458 20.232420
795.018575 15.318360
795.500692 80.226563
795.982808 146.549805
796.464925 143.673798
796.947042 79.535156
797.429158 40.282230
797.911275 41.893551
798.393392 46.198238
798.875509 57.388672
799.357625 65.103523
799.839742 62.671879
800.321859 52.745121
800.803975 37.783199
801.286092 16.033199
801.768209 6.117188
802.250326 29.271481
802.732442 57.885738
803.214559 67.541992
803.696676 63.505859
804.178792 55.825199
804.660909 48.257809
805.143026 44.833012
805.625143 51.513672
806.107259 60.943359
806.589376 54.822269
807.071493 35.444340
807.553609 21.290039
808.035726 15.787110
808.517843 8.486328
808.999960 10.055660
809.482076 30.276369
809.964193 25.811520
810.446310 12.578120
810.928426 42.444340
811.410543 65.137703
811.892660 77.143547
812.374777 68.342773
812.856893 54.025391
813.339010 54.360352
813.821127 69.060547
814.303243 72.095703
814.785360 44.245121
815.267477 24.147461
815.749594 35.493160
816.231710 52.121090
816.713827 42.272461
817.195944 15.887700
817.678060 11.206050
818.160177 48.341801
818.642294 89.875977
819.124411 108.536102
819.606527 113.405296
820.088644 113.344704
820.570761 110.227501
821.052877 104.850601
821.534994 97.519531
822.017111 88.740227
822.499227 77.525391
822.981344 66.094727
823.463461 65.436523
823.945578 76.047852
824.427694 85.499023
824.909811 94.321289
825.391928 96.916992
825.874044 86.457031
826.356161 67.471680
826.838278 53.390621
827.320395 45.589840
827.802511 39.434570
828.284628 27.392580
828.766745 26.692381
829.248861 54.214840
829.730978 89.871094
830.213095 112.129898
830.695212 119.076202
831.177328 112.411102
831.659445 74.373047
832.141562 46.652340
832.623678 55.458981
833.105795 77.489258
833.587912 92.504883
834.070029 98.088867
834.552145 97.558594
835.034262 92.360352
835.516379 82.553711
835.998495 61.645512
836.480612 41.680660
836.962729 46.522461
837.444846 70.113281
837.926962 88.322273
838.409079 93.822273
838.891196 87.596680
839.373312 66.923828
839.855429 37.593750
840.337546 18.709961
840.819663 10.315430
841.301779 19.653320
841.783896 52.812500
842.266013 79.657227
842.748129 78.361328
843.230246 58.465820
843.712363 43.498051
844.194480 31.929689
844.676596 33.237301
845.158713 62.912109
845.640830 82.467773
846.122946 65.242188
846.605063 41.526371
847.087180 45.092770
847.569296 73.502930
848.051413 88.378906
848.533530 81.258789
849.015647 69.443359
849.497763 46.664059
849.979880 29.168949
850.461997 35.674801
850.944113 56.258789
851.426230 67.298828
851.908347 60.956051
852.390464 55.387699
852.872580 69.258789
853.354697 84.508789
853.836814 72.096680
854.318930 48.550781
854.801047 56.132809
855.283164 96.895508
855.765281 125.613297
856.247397 105.196297
856.729514 65.854492
857.211631 65.868156
857.693747 94.505859
858.175864 101.897499
858.657981 83.861328
859.140098 62.830078
859.622214 48.423828
860.104331 41.783199
860.586448 44.795898
861.068564 56.812500
861.550681 60.767578
862.032798 50.094730
862.514915 37.742191
862.997031 24.749020
863.479148 19.323240
863.961265 32.812500
864.443381 57.700199
864.925498 65.802727
865.407615 42.464840
865.889732 32.644531
866.371848 39.019531
866.853965 53.980469
867.336082 89.557617
867.818198 124.511703
868.300315 135.681595
868.782432 120.488297
869.264549 94.431641
869.746665 42.000000
870.228782 4.566406
870.710899 0.162109
871.193015 15.708010
871.675132 55.973629
872.157249 103.133797
872.639365 120.062500
873.121482 93.298828
873.603599 58.282230
874.085716 34.286129
874.567832 20.040039
875.049949 20.842770
875.532066 27.985350
876.014182 16.499020
876.496299 12.862300
876.978416 21.566410
877.460533 20.948240
877.942649 79.202148
878.424766 88.800781
878.906883 65.160156
879.388999 73.455078
879.871116 113.985397
880.353233 134.408203
880.835350 112.995102
881.317466 71.458977
881.799583 30.795900
882.281700 5.256836
882.763816 6.067383
883.245933 35.476559
883.728050 55.725590
884.210167 36.767578
884.692283 21.291990
885.174400 40.061520
885.656517 76.303711
886.138633 92.203117
886.620750 80.921883
887.102867 81.987297
887.584984 115.675797
888.067100 127.958000
888.549217 81.761719
889.031334 28.790039
889.513450 18.137699
889.995567 40.070309
890.477684 49.728519
890.959801 37.942379
891.441917 25.012699
891.924034 2.552734
892.406151 8.353516
892.888267 15.626950
893.370384 51.298828
893.852501 65.558594
894.334618 55.260738
894.816734 45.170898
895.298851 42.295898
895.780968 45.546879
896.263084 64.656250
896.745201 81.747070
897.227318 65.233398
897.709435 32.078121
898.191551 37.166019
898.673668 100.603500
899.155785 149.956100
899.637901 101.500000
900.120018 27.754881
900.602135 24.620119
901.084251 62.361328
901.566368 69.765617
902.048485 39.277340
902.530602 11.899410
903.012718 12.972660
903.494835 31.091801
903.976952 56.177731
904.459068 83.885742
904.941185 101.963898
905.423302 109.736298
905.905419 102.041000
906.387535 76.014648
906.869652 46.840820
907.351769 26.649410
907.833885 17.239260
908.316002 30.483400
908.798119 66.659180
909.280236 84.905273
909.762352 79.347656
910.244469 68.046883
910.726586 59.263672
911.208702 49.894531
911.690819 31.954100
912.172936 6.010742
912.655053 15.113280
913.137169 77.947273
913.619286 115.561501
914.101403 106.704102
914.583519 84.550781
915.065636 67.323242
915.547753 54.052731
916.029870 42.194340
916.511986 27.046881
916.994103 25.700199
917.476220 69.421883
917.958336 86.902344
918.440453 23.515619
918.922570 39.277340
919.404687 22.157230
919.886803 50.635738
920.368920 85.406250
920.851037 55.250980
921.333153 32.281250
921.815270 28.425779
922.297387 33.707031
922.779504 54.947269
923.261620 75.249023
923.743737 70.983398
924.225854 44.436520
924.707970 1.647461
925.190087 40.836910
925.672204 63.200199
926.154320 69.634773
926.636437 12.426760
927.118554 37.391602
927.600671 29.420900
928.082787 19.848631
928.564904 56.025391
929.047021 7.930664
929.529137 43.719730
930.011254 46.072269
930.493371 63.730469
930.975488 48.250980
931.457604 43.004879
931.939721 70.874023
932.421838 80.327148
932.903954 60.941410
933.386071 79.552727
933.868188 30.944340
934.350305 40.461910
934.832421 74.833977
935.314538 57.109379
935.796655 76.328117
936.278771 81.504883
936.760888 22.875980
937.243005 75.205078
937.725122 79.544922
938.207238 34.610352
938.689355 83.159180
939.171472 16.129881
939.653588 9.757813
940.135705 14.270510
940.617822 26.873051
941.099939 40.992191
941.582055 51.530270
942.064172 57.025391
942.546289 52.791019
943.028405 41.044922
943.510522 30.871090
943.992639 22.236330
944.474756 22.584961
944.956872 34.729488
945.438989 47.707031
945.921106 51.570309
946.403222 49.100590
946.885339 50.832031
947.367456 56.791019
947.849573 54.168949
948.331689 40.818359
948.813806 34.789059
949.295923 44.573238
949.778039 55.521481
950.260156 49.154301
950.742273 31.878910
951.224389 34.126949
951.706506 60.222660
952.188623 76.648438
952.670740 78.738281
953.152856 76.517578
953.634973 74.189453
954.117090 70.658203
954.599206 64.062500
955.081323 54.614262
955.563440 46.447269
956.045557 41.532230
956.527673 30.037109
957.009790 0.120117
957.491907 13.112300
957.974023 19.104490
958.456140 68.301758
958.938257 86.614258
959.420374 71.287109
959.902490 64.623047
960.384607 73.490227
960.866724 77.271477
961.348840 74.915039
961.830957 63.799801
962.313074 32.569340
962.795191 3.500977
963.277307 12.357420
963.759424 12.357420
964.241541 30.270510
964.723657 38.674801
965.205774 44.255859
965.687891 42.865231
966.170008 44.163090
966.652124 62.236328
967.134241 85.625977
967.616358 83.872070
968.098474 44.120121
968.580591 28.452150
969.062708 69.312500
969.544825 95.075203
970.026941 69.301758
970.509058 38.671879
970.991175 47.666988
971.473291 78.867188
971.955408 81.781250
972.437525 41.974609
972.919642 9.125000
973.401758 20.446289
973.883875 29.006840
974.365992 12.351560
974.848108 59.250000
975.330225 63.999020
975.812342 39.283199
976.294458 34.541988
976.776575 67.182617
977.258692 79.993156
977.740809 27.592770
978.222925 9.096680
978.705042 29.003910
979.187159 82.277344
979.669275 84.340820
980.151392 47.333012
980.633509 30.763670
981.115626 53.387699
981.597742 77.832031
982.079859 106.155296
982.561976 118.052696
983.044092 88.138672
983.526209 47.918949
984.008326 31.905270
984.490443 38.267578
984.972559 46.990231
985.454676 53.487301
985.936793 59.342770
986.418909 69.485352
986.901026 74.316406
987.383143 63.654301
987.865260 49.522461
988.347376 41.629879
988.829493 41.230469
989.311610 44.187500
989.793726 53.703121
990.275843 53.103519
990.757960 19.154301
991.240077 9.272461
991.722193 3.661133
992.204310 19.586910
992.686427 43.352539
993.168543 63.858398
993.650660 80.338867
994.132777 95.732422
994.614894 97.377930
995.097010 64.608398
995.579127 32.455078
996.061244 22.125000
996.543360 28.382811
997.025477 52.758789
997.507594 86.853523
997.989711 100.121101
998.471827 75.331047
998.953944 49.533199
999.436061 42.895512
999.918177 37.779301
1000.400294 14.321290
1000.882411 8.653320
1001.364527 3.477539
1001.846644 24.197269
1002.328761 36.534180
1002.810878 13.094730
1003.292994 3.915039
1003.775111 7.000000
1004.257228 29.286131
1004.739344 63.715820
1005.221461 94.852539
1005.703578 102.225601
1006.185695 88.023438
1006.667811 68.515617
1007.149928 45.204102
1007.632045 30.811520
1008.114161 35.396481
1008.596278 46.105469
1009.078395 56.029301
1009.560512 66.089844
1010.042628 83.798828
1010.524745 103.561501
1011.006862 102.636703
1011.488978 66.845703
1011.971095 36.891602
1012.453212 28.123051
1012.935329 32.716801
1013.417445 57.762699
1013.899562 84.909180
1014.381679 93.305656
1014.863795 84.898438
1015.345912 71.085938
1015.828029 52.215820
1016.310146 48.876949
1016.792262 86.890617
1017.274379 121.687500
1017.756496 127.974602
1018.238612 119.740196
1018.720729 107.108398
1019.202846 94.022461
1019.684963 88.083977
1020.167079 94.202148
1020.649196 90.945313
1021.131313 60.412109
1021.613429 33.405270
1022.095546 13.752930
1022.577663 10.587890
1023.059780 49.921879
1023.541896 108.826202
1024.024013 127.333000
1024.506130 87.625977
1024.988246 52.849609
1025.470363 43.792969
1025.952480 37.394531
1026.434596 22.046881
1026.916713 8.741211
1027.398830 5.192383
1027.880947 10.710940
1028.363063 26.393551
1028.845180 55.236328
1029.327297 68.755859
1029.809413 46.544922
1030.291530 29.571289
1030.773647 38.332031
1031.255764 44.820309
1031.737880 19.375980
1032.219997 12.984380
1032.702114 7.464844
1033.184230 42.918949
1033.666347 76.011719
1034.148464 77.562500
1034.630581 73.093750
1035.112697 61.321289
1035.594814 50.232422
1036.076931 35.688480
1036.559047 29.371090
1037.041164 54.893551
1037.523281 114.121101
1038.005398 143.207993
1038.487514 127.725601
1038.969631 104.334999
1039.451748 54.998051
1039.933864 24.664061
1040.415981 51.350590
1040.898098 91.488281
1041.380215 86.815430
1041.862331 43.266602
1042.344448 28.379881
1042.826565 62.968750
1043.308681 80.479492
1043.790798 76.117188
1044.272915 58.973629
1044.755032 14.452150
1045.237148 20.725590
1045.719265 1.734375
1046.201382 55.374020
1046.683498 74.933594
1047.165615 40.982422
1047.647732 19.430660
1048.129849 14.236330
1048.611965 14.999020
1049.094082 19.460939
1049.576199 26.128910
1050.058315 33.524410
1050.540432 40.362301
1051.022549 42.625980
1051.504665 39.149410
1051.986782 44.899410
1052.468899 62.808590
1052.951016 69.525391
1053.433132 57.736328
1053.915249 44.464840
1054.397366 41.291019
1054.879482 42.817379
1055.361599 37.206051
1055.843716 26.148439
1056.325833 37.393551
1056.807949 70.745117
1057.290066 67.642578
1057.772183 17.617189
1058.254299 18.050779
1058.736416 6.784180
1059.218533 23.526369
1059.700650 36.349609
1060.182766 34.257809
1060.664883 26.789061
1061.147000 16.805660
1061.629116 17.377930
1062.111233 54.966801
1062.593350 75.707031
1063.075467 80.535156
1063.557583 21.734381
1064.039700 45.075199
1064.521817 35.467770
1065.003933 24.509769
1065.486050 59.399410
1065.968167 9.800781
1066.450284 43.958981
1066.932400 44.679691
1067.414517 60.767578
1067.896634 45.288090
1068.378750 38.495121
1068.860867 64.755859
1069.342984 72.661133
1069.825101 51.722660
1070.307217 25.585939
1070.789334 46.918949
1071.271451 63.891602
1071.753567 72.963867
1072.235684 73.274406
1072.717801 62.832031
1073.199918 54.511719
1073.682034 63.665039
1074.164151 72.263672
1074.646268 56.138672
1075.128384 37.240231
1075.610501 51.775391
1076.092618 86.144531
1076.574735 93.460938
1077.056851 60.255859
1077.538968 37.780270
1078.021085 63.452148
1078.503201 84.722656
1078.985318 74.043953
1079.467435 53.924801
1079.949551 36.612301
1080.431668 25.969730
1080.913785 29.933590
1081.395902 47.644531
1081.878018 50.356449
1082.360135 14.760740
1082.842252 8.293945
1083.324368 8.043945
1083.806485 2.553711
1084.288602 26.217770
1084.770719 50.962891
1085.252835 65.116211
1085.734952 69.216797
1086.217069 64.627930
1086.699185 42.826172
1087.181302 36.018551
1087.663419 56.823238
1088.145536 66.152344
1088.627652 47.191410
1089.109769 26.830080
1089.591886 25.254881
1090.074002 34.166988
1090.556119 39.284180
1091.038236 40.810551
1091.520353 35.870121
1092.002469 22.173830
1092.484586 18.133789
1092.966703 28.140619
1093.448819 38.266602
1093.930936 41.386719
1094.413053 41.895512
1094.895170 45.110352
1095.377286 50.675781
1095.859403 59.773441
1096.341520 70.836906
1096.823636 68.314453
1097.305753 52.941410
1097.787870 45.713871
1098.269987 52.627930
1098.752103 55.072269
1099.234220 36.520512
1099.716337 13.141600
1100.198453 14.411130
1100.680570 26.379881
1101.162687 10.716800
1101.644804 16.089840
1102.126920 3.475586
1102.609037 62.998051
1103.091154 86.483398
1103.573270 39.495121
1104.055387 12.820310
1104.537504 16.129881
1105.019620 0.189453
1105.501737 16.617189
1105.983854 29.967770
1106.465971 31.297850
1106.948087 26.649410
1107.430204 32.780270
1107.912321 51.986328
1108.394437 60.193359
1108.876554 35.917969
1109.358671 16.636721
1109.840788 17.554689
1110.322904 26.263670
1110.805021 44.961910
1111.287138 60.454102
1111.769254 52.883789
1112.251371 26.799801
1112.733488 9.581055
1113.215605 4.657227
1113.697721 6.287109
1114.179838 16.847660
1114.661955 30.424801
1115.144071 56.362301
1115.626188 68.791992
1116.108305 39.456051
1116.590422 4.009766
1117.072538 11.078120
1117.554655 17.997070
1118.036772 28.990231
1118.518888 17.745119
1119.001005 12.336910
1119.483122 17.101561
1119.965239 20.165039
1120.447355 15.757810
1120.929472 12.623050
1121.411589 19.588869
1121.893705 34.818359
1122.375822 58.488281
1122.857939 85.273438
1123.340056 99.747070
1123.822172 99.780273
1124.304289 68.421883
1124.786406 9.106445
1125.268522 23.698240
1125.750639 2.328125
1126.232756 42.894531
1126.714873 47.397461
1127.196989 37.452148
1127.679106 46.773441
1128.161223 60.125000
1128.643339 43.717770
1129.125456 10.840820
1129.607573 4.531250
1130.089689 33.860352
1130.571806 66.579102
1131.053923 91.885742
1131.536040 108.345703
1132.018156 109.113297
1132.500273 104.276398
1132.982390 99.388672
1133.464506 94.593750
1133.946623 93.121094
1134.428740 91.582031
1134.910857 75.457031
1135.392973 35.264648
1135.875090 7.343750
1136.357207 12.525390
1136.839323 7.258789
1137.321440 50.908199
1137.803557 97.467773
1138.285674 85.852539
1138.767790 54.182621
1139.249907 61.768551
1139.732024 102.372101
1140.214140 114.210899
1140.696257 91.710938
1141.178374 78.953117
1141.660491 79.963867
1142.142607 86.210938
1142.624724 95.934570
1143.106841 91.957031
1143.588957 57.434570
1144.071074 19.582029
1144.553191 36.669922
1145.035308 85.246094
1145.517424 85.865227
1145.999541 57.153320
1146.481658 69.144531
1146.963774 115.940399
1147.445891 126.762703
1147.928008 77.715820
1148.410125 28.041019
1148.892241 20.061520
1149.374358 31.667971
1149.856475 53.972660
1150.338591 76.380859
1150.820708 87.113281
1151.302825 91.461906
1151.784942 98.779297
1152.267058 108.793900
1152.749175 114.864304
1153.231292 114.811501
1153.713408 112.981400
1154.195525 112.697304
1154.677642 107.602501
1155.159758 91.937500
1155.641875 74.537109
1156.123992 57.073238
1156.606109 43.911129
1157.088225 41.234379
1157.570342 48.805660
1158.052459 68.102539
1158.534575 107.605499
1159.016692 116.198196
1159.498809 84.191406
1159.980926 58.129879
1160.463042 49.942379
1160.945159 52.145512
1161.427276 60.699219
1161.909392 68.196289
1162.391509 62.772461
1162.873626 50.163090
1163.355743 46.939449
1163.837859 48.406250
1164.319976 36.001949
1164.802093 13.053710
1165.284209 0.340820
1165.766326 4.200195
1166.248443 15.716800
1166.730560 30.156250
1167.212676 47.105469
1167.694793 75.215820
1168.176910 96.523438
1168.659026 87.087891
1169.141143 66.750000
1169.623260 60.641602
1170.105377 66.537109
1170.587493 71.490227
1171.069610 74.318359
1171.551727 67.469727
1172.033843 39.554691
1172.515960 17.501949
1172.998077 3.438477
1173.480194 1.479492
1173.962310 4.205078
1174.444427 17.988279
1174.926544 40.677731
1175.408660 68.372070
1175.890777 82.351563
1176.372894 82.769531
1176.855011 72.109383
1177.337127 50.603519
1177.819244 39.190430
1178.301361 41.307621
1178.783477 33.026371
1179.265594 2.566406
1179.747711 12.956050
1180.229827 37.180660
1180.711944 104.314499
1181.194061 102.245102
1181.676178 67.007813
1182.158294 55.257809
1182.640411 60.816410
1183.122528 58.212891
1183.604644 50.312500
1184.086761 56.867191
1184.568878 89.248047
1185.050995 107.330101
1185.533111 84.121094
1186.015228 54.860352
1186.497345 24.492189
1186.979461 3.084961
1187.461578 4.191406
1187.943695 13.396480
1188.425812 5.008789
1188.907928 15.130860
1189.390045 7.466797
1189.872162 42.590820
1190.354278 63.257809
1190.836395 47.869141
1191.318512 31.565430
1191.800629 20.541019
1192.282745 22.541019
1192.764862 43.513672
1193.246979 67.639648
1193.729095 75.622070
1194.211212 71.445313
1194.693329 60.612301
1195.175446 47.054691
1195.657562 39.326172
1196.139679 38.741211
1196.621796 50.375980
1197.103912 71.428711
1197.586029 85.094727
1198.068146 82.779297
1198.550263 85.040039
1199.032379 123.725601
1199.514496 146.011703
1199.996613 101.721703
1200.478729 49.945309
1200.960846 37.487301
1201.442963 47.409180
1201.925080 51.066410
1202.407196 49.180660
1202.889313 59.502930
1203.371430 87.551758
1203.853546 111.287102
1204.335663 133.977493
1204.817780 140.197296
1205.299896 124.700203
1205.782013 100.562500
1206.264130 73.258789
1206.746247 50.651371
1207.228363 42.571289
1207.710480 45.056641
1208.192597 49.591801
1208.674713 55.769531
1209.156830 64.695313
1209.638947 74.277344
1210.121064 82.832031
1210.603180 86.998047
1211.085297 70.042969
1211.567414 22.902340
1212.049530 2.095703
1212.531647 45.212891
1213.013764 91.900391
1213.495881 105.830101
1213.977997 98.620117
1214.460114 59.731449
1214.942231 18.003910
1215.424347 12.782230
1215.906464 34.653320
1216.388581 40.566410
1216.870698 33.705078
1217.352814 28.497070
1217.834931 24.200199
1218.317048 25.614260
1218.799164 34.523441
1219.281281 41.031250
1219.763398 40.921879
1220.245515 39.138672
1220.727631 40.503910
1221.209748 41.601559
1221.691865 30.326170
1222.173981 18.138670
1222.656098 34.647461
1223.138215 66.015617
1223.620332 87.622070
1224.102448 95.408203
1224.584565 86.452148
1225.066682 62.140621
1225.548798 44.223629
1226.030915 45.114262
1226.513032 47.793949
1226.995149 51.076172
1227.477265 49.204102
1227.959382 26.411131
1228.441499 12.229490
1228.923615 38.904301
1229.405732 76.026367
1229.887849 66.528320
1230.369965 16.998051
1230.852082 3.969727
1231.334199 29.193359
1231.816316 50.612301
1232.298432 64.952148
1232.780549 53.201172
1233.262666 14.017580
1233.744782 8.315430
1234.226899 11.893550
1234.709016 39.757809
1235.191133 36.345699
1235.673249 24.955080
1236.155366 26.148439
1236.637483 38.167969
1237.119599 74.759773
1237.601716 110.900398
1238.083833 95.307617
1238.565950 30.056641
1239.048066 2.012695
1239.530183 7.176758
1240.012300 21.552731
1240.494416 41.732422
1240.976533 62.248051
1241.458650 73.753906
1241.940767 75.654297
1242.422883 40.153320
1242.905000 0.000000
