PE IR       RAMAN       SPECTRUM    ASCII       PEDS        1.60        
  -1
AMYLOSE.ASC
00/04/13
18:05:53.00
00/04/13
18:05:53.00
sbe
Potato amylose (4 cm-1, 256, medium, 400 mW)
200.000000
256









2000,4.07    
INGAAS
RAM_DPY2
QUARTZ

0.100000
1
4.000000
MEDIUM
SINGLE
RAMAN
MAGN 0

DOUBLE

COMBINED
1
0
0


1.000000
SINGLE BEAM


1
0
TRUE
39836
1
 0
NONE
NONE
15600
21.200000
8.170999
39835
TRUE
1 0 0 0 0 0 0 0 

15798.010000
9394.690000
400.000000




#HDR
-1
-1
#GR
CM-1
INT
0.00100000000000000000
0.0
3600.000000
-1.000000
3401
8
7.851886
0.062584
#DATA
3600.000000	0.072169 
3599.000000	0.070714 
3598.000000	0.074958 
3597.000000	0.084185 
3596.000000	0.088357 
3595.000000	0.081920 
3594.000000	0.070405 
3593.000000	0.062775 
3592.000000	0.062584 
3591.000000	0.066804 
3590.000000	0.070977 
3589.000000	0.074219 
3588.000000	0.077319 
3587.000000	0.079488 
3586.000000	0.081920 
3585.000000	0.088787 
3584.000000	0.096774 
3583.000000	0.094366 
3582.000000	0.082802 
3581.000000	0.082731 
3580.000000	0.102972 
3579.000000	0.123119 
3578.000000	0.124526 
3577.000000	0.116586 
3576.000000	0.113296 
3575.000000	0.109839 
3574.000000	0.100946 
3573.000000	0.096797 
3572.000000	0.103497 
3571.000000	0.110960 
3570.000000	0.112938 
3569.000000	0.117397 
3568.000000	0.128960 
3567.000000	0.140523 
3566.000000	0.146794 
3565.000000	0.148248 
3564.000000	0.143575 
3563.000000	0.135040 
3562.000000	0.136590 
3561.000000	0.155448 
3560.000000	0.174283 
3559.000000	0.173592 
3558.000000	0.161552 
3557.000000	0.158095 
3556.000000	0.163364 
3555.000000	0.165700 
3554.000000	0.166034 
3553.000000	0.170207 
3552.000000	0.172972 
3551.000000	0.170254 
3550.000000	0.170636 
3549.000000	0.179195 
3548.000000	0.186514 
3547.000000	0.186872 
3546.000000	0.188112 
3545.000000	0.194692 
3544.000000	0.198888 
3543.000000	0.196981 
3542.000000	0.197482 
3541.000000	0.207138 
3540.000000	0.220823 
3539.000000	0.230050 
3538.000000	0.232529 
3537.000000	0.231313 
3536.000000	0.230979 
3535.000000	0.235605 
3534.000000	0.244927 
3533.000000	0.253915 
3532.000000	0.258874 
3531.000000	0.261235 
3530.000000	0.264167 
3529.000000	0.267457 
3528.000000	0.267672 
3527.000000	0.264310 
3526.000000	0.264024 
3525.000000	0.273680 
3524.000000	0.287795 
3523.000000	0.292968 
3522.000000	0.289869 
3521.000000	0.294566 
3520.000000	0.310802 
3519.000000	0.321674 
3518.000000	0.317668 
3517.000000	0.309109 
3516.000000	0.302219 
3515.000000	0.291514 
3514.000000	0.282120 
3513.000000	0.289320 
3512.000000	0.310659 
3511.000000	0.328063 
3510.000000	0.338006 
3509.000000	0.351428 
3508.000000	0.366353 
3507.000000	0.370717 
3506.000000	0.368380 
3505.000000	0.373172 
3504.000000	0.384068 
3503.000000	0.391888 
3502.000000	0.398969 
3501.000000	0.409793 
3500.000000	0.416374 
3499.000000	0.414657 
3498.000000	0.417542 
3497.000000	0.431895 
3496.000000	0.444650 
3495.000000	0.448632 
3494.000000	0.456666 
3493.000000	0.474190 
3492.000000	0.484967 
3491.000000	0.479960 
3490.000000	0.474786 
3489.000000	0.484943 
3488.000000	0.505352 
3487.000000	0.522613 
3486.000000	0.530242 
3485.000000	0.527501 
3484.000000	0.518631 
3483.000000	0.516223 
3482.000000	0.532889 
3481.000000	0.565862 
3480.000000	0.598311 
3479.000000	0.616002 
3478.000000	0.618743 
3477.000000	0.617623 
3476.000000	0.623774 
3475.000000	0.639629 
3474.000000	0.658869 
3473.000000	0.674510 
3472.000000	0.685453 
3471.000000	0.695252 
3470.000000	0.708007 
3469.000000	0.723600 
3468.000000	0.734472 
3467.000000	0.735378 
3466.000000	0.737476 
3465.000000	0.757169 
3464.000000	0.787329 
3463.000000	0.805497 
3462.000000	0.813031 
3461.000000	0.831246 
3460.000000	0.856304 
3459.000000	0.862669 
3458.000000	0.852823 
3457.000000	0.858068 
3456.000000	0.885677 
3455.000000	0.911903 
3454.000000	0.927424 
3453.000000	0.944924 
3452.000000	0.965070 
3451.000000	0.976085 
3450.000000	0.980854 
3449.000000	0.989413 
3448.000000	0.996875 
3447.000000	0.998425 
3446.000000	1.007485 
3445.000000	1.032638 
3444.000000	1.058435 
3443.000000	1.072335 
3442.000000	1.085495 
3441.000000	1.105880 
3440.000000	1.119852 
3439.000000	1.120543 
3438.000000	1.123523 
3437.000000	1.137590 
3436.000000	1.148438 
3435.000000	1.146507 
3434.000000	1.143503 
3433.000000	1.151132 
3432.000000	1.165533 
3431.000000	1.179361 
3430.000000	1.192903 
3429.000000	1.207518 
3428.000000	1.219272 
3427.000000	1.223564 
3426.000000	1.224088 
3425.000000	1.231479 
3424.000000	1.249408 
3423.000000	1.266694 
3422.000000	1.272177 
3421.000000	1.271247 
3420.000000	1.274466 
3419.000000	1.280856 
3418.000000	1.286768 
3417.000000	1.297140 
3416.000000	1.311922 
3415.000000	1.318049 
3414.000000	1.312017 
3413.000000	1.308512 
3412.000000	1.312756 
3411.000000	1.310420 
3410.000000	1.297998 
3409.000000	1.293492 
3408.000000	1.304054 
3407.000000	1.314544 
3406.000000	1.317715 
3405.000000	1.323103 
3404.000000	1.331663 
3403.000000	1.333069 
3402.000000	1.331162 
3401.000000	1.338052 
3400.000000	1.346135 
3399.000000	1.340603 
3398.000000	1.331591 
3397.000000	1.338863 
3396.000000	1.355767 
3395.000000	1.361656 
3394.000000	1.356029 
3393.000000	1.348614 
3392.000000	1.334857 
3391.000000	1.311945 
3390.000000	1.297426 
3389.000000	1.305007 
3388.000000	1.321530 
3387.000000	1.330709 
3386.000000	1.336646 
3385.000000	1.345729 
3384.000000	1.350212 
3383.000000	1.344847 
3382.000000	1.338672 
3381.000000	1.339387 
3380.000000	1.344060 
3379.000000	1.350569 
3378.000000	1.360774 
3377.000000	1.369118 
3376.000000	1.362991 
3375.000000	1.340103 
3374.000000	1.317667 
3373.000000	1.317501 
3372.000000	1.340842 
3371.000000	1.363182 
3370.000000	1.361608 
3369.000000	1.341176 
3368.000000	1.324033 
3367.000000	1.320481 
3366.000000	1.326370 
3365.000000	1.337146 
3364.000000	1.347351 
3363.000000	1.347517 
3362.000000	1.338768 
3361.000000	1.336407 
3360.000000	1.345634 
3359.000000	1.351523 
3358.000000	1.346039 
3357.000000	1.342988 
3356.000000	1.351833 
3355.000000	1.361083 
3354.000000	1.358795 
3353.000000	1.346850 
3352.000000	1.328182 
3351.000000	1.304221 
3350.000000	1.288366 
3349.000000	1.294231 
3348.000000	1.310467 
3347.000000	1.315450 
3346.000000	1.312780 
3345.000000	1.320576 
3344.000000	1.333665 
3343.000000	1.332283 
3342.000000	1.317811 
3341.000000	1.306176 
3340.000000	1.297736 
3339.000000	1.285505 
3338.000000	1.276350 
3337.000000	1.274919 
3336.000000	1.267480 
3335.000000	1.247954 
3334.000000	1.236200 
3333.000000	1.247167 
3332.000000	1.266145 
3331.000000	1.274466 
3330.000000	1.274919 
3329.000000	1.276087 
3328.000000	1.274156 
3327.000000	1.265096 
3326.000000	1.255702 
3325.000000	1.252460 
3324.000000	1.252961 
3323.000000	1.253509 
3322.000000	1.253843 
3321.000000	1.253581 
3320.000000	1.252484 
3319.000000	1.253104 
3318.000000	1.256847 
3317.000000	1.259446 
3316.000000	1.255106 
3315.000000	1.244783 
3314.000000	1.238918 
3313.000000	1.245880 
3312.000000	1.256155 
3311.000000	1.248049 
3310.000000	1.218247 
3309.000000	1.190900 
3308.000000	1.183724 
3307.000000	1.185154 
3306.000000	1.181054 
3305.000000	1.177668 
3304.000000	1.178503 
3303.000000	1.169896 
3302.000000	1.149296 
3301.000000	1.135945 
3300.000000	1.136589 
3299.000000	1.135301 
3298.000000	1.128649 
3297.000000	1.132416 
3296.000000	1.146769 
3295.000000	1.153349 
3294.000000	1.149511 
3293.000000	1.148343 
3292.000000	1.147341 
3291.000000	1.134204 
3290.000000	1.118254 
3289.000000	1.118421 
3288.000000	1.127958 
3287.000000	1.126408 
3286.000000	1.114797 
3285.000000	1.107621 
3284.000000	1.104307 
3283.000000	1.096343 
3282.000000	1.086091 
3281.000000	1.075839 
3280.000000	1.057767 
3279.000000	1.033735 
3278.000000	1.024341 
3277.000000	1.040601 
3276.000000	1.065492 
3275.000000	1.076889 
3274.000000	1.072406 
3273.000000	1.062536 
3272.000000	1.054453 
3271.000000	1.049661 
3270.000000	1.048302 
3269.000000	1.048755 
3268.000000	1.047277 
3267.000000	1.042175 
3266.000000	1.036906 
3265.000000	1.038146 
3264.000000	1.047468 
3263.000000	1.056981 
3262.000000	1.056551 
3261.000000	1.045823 
3260.000000	1.032733 
3259.000000	1.022744 
3258.000000	1.017904 
3257.000000	1.019954 
3256.000000	1.024889 
3255.000000	1.022696 
3254.000000	1.013422 
3253.000000	1.009845 
3252.000000	1.014876 
3251.000000	1.015162 
3250.000000	1.009297 
3249.000000	1.013684 
3248.000000	1.027441 
3247.000000	1.026606 
3246.000000	1.006293 
3245.000000	0.991153 
3244.000000	0.992584 
3243.000000	0.992798 
3242.000000	0.981950 
3241.000000	0.971889 
3240.000000	0.967693 
3239.000000	0.960326 
3238.000000	0.951242 
3237.000000	0.952672 
3236.000000	0.962948 
3235.000000	0.967764 
3234.000000	0.962638 
3233.000000	0.953054 
3232.000000	0.939226 
3231.000000	0.922036 
3230.000000	0.912618 
3229.000000	0.917601 
3228.000000	0.926160 
3227.000000	0.926995 
3226.000000	0.922822 
3225.000000	0.916051 
3224.000000	0.900292 
3223.000000	0.879573 
3222.000000	0.872588 
3221.000000	0.883483 
3220.000000	0.893259 
3219.000000	0.890541 
3218.000000	0.889229 
3217.000000	0.904011 
3216.000000	0.925707 
3215.000000	0.931835 
3214.000000	0.913715 
3213.000000	0.884628 
3212.000000	0.863766 
3211.000000	0.856542 
3210.000000	0.855946 
3209.000000	0.858521 
3208.000000	0.868487 
3207.000000	0.886154 
3206.000000	0.903034 
3205.000000	0.909900 
3204.000000	0.902342 
3203.000000	0.881385 
3202.000000	0.856065 
3201.000000	0.839543 
3200.000000	0.834798 
3199.000000	0.831913 
3198.000000	0.825262 
3197.000000	0.821280 
3196.000000	0.822973 
3195.000000	0.820875 
3194.000000	0.808835 
3193.000000	0.795006 
3192.000000	0.787329 
3191.000000	0.783181 
3190.000000	0.779819 
3189.000000	0.778746 
3188.000000	0.776720 
3187.000000	0.770378 
3186.000000	0.769019 
3185.000000	0.779366 
3184.000000	0.784230 
3183.000000	0.766110 
3182.000000	0.742483 
3181.000000	0.742697 
3180.000000	0.760746 
3179.000000	0.768280 
3178.000000	0.759410 
3177.000000	0.746774 
3176.000000	0.730824 
3175.000000	0.710034 
3174.000000	0.701022 
3173.000000	0.715136 
3172.000000	0.735282 
3171.000000	0.742769 
3170.000000	0.742030 
3169.000000	0.738573 
3168.000000	0.724077 
3167.000000	0.701594 
3166.000000	0.692963 
3165.000000	0.704789 
3164.000000	0.716924 
3163.000000	0.716471 
3162.000000	0.714278 
3161.000000	0.720143 
3160.000000	0.725674 
3159.000000	0.720453 
3158.000000	0.707483 
3157.000000	0.696849 
3156.000000	0.693273 
3155.000000	0.693321 
3154.000000	0.692176 
3153.000000	0.689697 
3152.000000	0.686717 
3151.000000	0.681328 
3150.000000	0.676393 
3149.000000	0.681257 
3148.000000	0.694775 
3147.000000	0.699305 
3146.000000	0.688076 
3145.000000	0.678658 
3144.000000	0.682640 
3143.000000	0.683927 
3142.000000	0.667405 
3141.000000	0.644731 
3140.000000	0.632667 
3139.000000	0.630140 
3138.000000	0.632047 
3137.000000	0.639533 
3136.000000	0.645899 
3135.000000	0.640511 
3134.000000	0.631976 
3133.000000	0.637722 
3132.000000	0.650143 
3131.000000	0.647854 
3130.000000	0.635814 
3129.000000	0.637054 
3128.000000	0.650072 
3127.000000	0.654578 
3126.000000	0.650763 
3125.000000	0.652480 
3124.000000	0.654506 
3123.000000	0.643062 
3122.000000	0.624966 
3121.000000	0.612378 
3120.000000	0.599527 
3119.000000	0.583076 
3118.000000	0.581216 
3117.000000	0.604915 
3116.000000	0.633072 
3115.000000	0.640630 
3114.000000	0.629711 
3113.000000	0.616693 
3112.000000	0.609898 
3111.000000	0.612568 
3110.000000	0.625824 
3109.000000	0.639414 
3108.000000	0.638294 
3107.000000	0.624370 
3106.000000	0.616192 
3105.000000	0.623583 
3104.000000	0.637054 
3103.000000	0.642704 
3102.000000	0.638341 
3101.000000	0.632429 
3100.000000	0.631761 
3099.000000	0.634121 
3098.000000	0.634503 
3097.000000	0.632834 
3096.000000	0.628995 
3095.000000	0.619149 
3094.000000	0.607228 
3093.000000	0.607323 
3092.000000	0.621104 
3091.000000	0.628352 
3090.000000	0.617647 
3089.000000	0.606322 
3088.000000	0.611591 
3087.000000	0.625944 
3086.000000	0.638365 
3085.000000	0.651240 
3084.000000	0.661945 
3083.000000	0.658917 
3082.000000	0.648546 
3081.000000	0.650811 
3080.000000	0.661587 
3079.000000	0.657749 
3078.000000	0.640916 
3077.000000	0.634741 
3076.000000	0.640153 
3075.000000	0.636315 
3074.000000	0.623321 
3073.000000	0.619697 
3072.000000	0.624895 
3071.000000	0.622725 
3070.000000	0.614929 
3069.000000	0.613975 
3068.000000	0.617098 
3067.000000	0.617527 
3066.000000	0.623273 
3065.000000	0.637650 
3064.000000	0.644278 
3063.000000	0.634622 
3062.000000	0.627064 
3061.000000	0.636458 
3060.000000	0.649881 
3059.000000	0.650668 
3058.000000	0.644254 
3057.000000	0.645637 
3056.000000	0.657892 
3055.000000	0.674581 
3054.000000	0.690221 
3053.000000	0.700759 
3052.000000	0.704002 
3051.000000	0.703859 
3050.000000	0.708961 
3049.000000	0.724363 
3048.000000	0.744462 
3047.000000	0.756192 
3046.000000	0.751042 
3045.000000	0.734877 
3044.000000	0.722837 
3043.000000	0.725007 
3042.000000	0.740766 
3041.000000	0.763916 
3040.000000	0.785994 
3039.000000	0.800561 
3038.000000	0.811147 
3037.000000	0.829100 
3036.000000	0.855922 
3035.000000	0.878763 
3034.000000	0.891494 
3033.000000	0.904130 
3032.000000	0.921320 
3031.000000	0.934386 
3030.000000	0.943851 
3029.000000	0.962710 
3028.000000	0.987505 
3027.000000	1.001644 
3026.000000	1.010799 
3025.000000	1.037335 
3024.000000	1.076626 
3023.000000	1.104068 
3022.000000	1.123523 
3021.000000	1.160478 
3020.000000	1.211595 
3019.000000	1.251173 
3018.000000	1.279854 
3017.000000	1.316547 
3016.000000	1.358151 
3015.000000	1.392865 
3014.000000	1.434063 
3013.000000	1.494932 
3012.000000	1.555895 
3011.000000	1.595544 
3010.000000	1.627850 
3009.000000	1.673507 
3008.000000	1.724886 
3007.000000	1.766562 
3006.000000	1.806759 
3005.000000	1.861810 
3004.000000	1.931571 
3003.000000	2.006196 
3002.000000	2.081441 
3001.000000	2.155971 
3000.000000	2.227067 
2999.000000	2.294492 
2998.000000	2.360796 
2997.000000	2.426242 
2996.000000	2.491354 
2995.000000	2.561068 
2994.000000	2.640676 
2993.000000	2.726984 
2992.000000	2.807521 
2991.000000	2.870941 
2990.000000	2.921748 
2989.000000	2.979564 
2988.000000	3.056478 
2987.000000	3.144955 
2986.000000	3.238725 
2985.000000	3.346538 
2984.000000	3.465890 
2983.000000	3.570842 
2982.000000	3.650307 
2981.000000	3.729176 
2980.000000	3.823304 
2979.000000	3.912568 
2978.000000	3.982901 
2977.000000	4.054141 
2976.000000	4.138231 
2975.000000	4.217576 
2974.000000	4.285764 
2973.000000	4.363965 
2972.000000	4.460334 
2971.000000	4.558110 
2970.000000	4.651951 
2969.000000	4.753732 
2968.000000	4.859447 
2967.000000	4.954171 
2966.000000	5.046510 
2965.000000	5.156397 
2964.000000	5.274701 
2963.000000	5.375432 
2962.000000	5.457091 
2961.000000	5.536627 
2960.000000	5.617547 
2959.000000	5.697894 
2958.000000	5.789804 
2957.000000	5.901217 
2956.000000	6.013703 
2955.000000	6.106066 
2954.000000	6.181526 
2953.000000	6.256103 
2952.000000	6.333613 
2951.000000	6.409931 
2950.000000	6.483864 
2949.000000	6.554603 
2948.000000	6.616616 
2947.000000	6.667542 
2946.000000	6.710648 
2945.000000	6.750559 
2944.000000	6.788158 
2943.000000	6.822705 
2942.000000	6.854701 
2941.000000	6.885766 
2940.000000	6.914186 
2939.000000	6.933569 
2938.000000	6.942415 
2937.000000	6.949925 
2936.000000	6.962227 
2935.000000	6.969594 
2934.000000	6.961917 
2933.000000	6.945633 
2932.000000	6.927776 
2931.000000	6.900882 
2930.000000	6.865024 
2929.000000	6.843662 
2928.000000	6.851482 
2927.000000	6.870841 
2926.000000	6.883811 
2925.000000	6.901216 
2924.000000	6.936502 
2923.000000	6.981897 
2922.000000	7.030129 
2921.000000	7.087922 
2920.000000	7.153677 
2919.000000	7.214546 
2918.000000	7.274556 
2917.000000	7.349824 
2916.000000	7.432246 
2915.000000	7.496237 
2914.000000	7.542204 
2913.000000	7.595252 
2912.000000	7.660365 
2911.000000	7.719421 
2910.000000	7.764887 
2909.000000	7.803201 
2908.000000	7.829523 
2907.000000	7.839274 
2906.000000	7.844209 
2905.000000	7.851886 
2904.000000	7.840609 
2903.000000	7.793736 
2902.000000	7.727885 
2901.000000	7.668590 
2900.000000	7.610535 
2899.000000	7.535290 
2898.000000	7.437014 
2897.000000	7.320952 
2896.000000	7.187318 
2895.000000	7.040309 
2894.000000	6.890082 
2893.000000	6.741571 
2892.000000	6.586623 
2891.000000	6.416845 
2890.000000	6.234216 
2889.000000	6.048250 
2888.000000	5.863118 
2887.000000	5.673098 
2886.000000	5.473828 
2885.000000	5.274391 
2884.000000	5.086231 
2883.000000	4.906558 
2882.000000	4.727482 
2881.000000	4.553985 
2880.000000	4.393386 
2879.000000	4.238247 
2878.000000	4.080605 
2877.000000	3.932738 
2876.000000	3.808283 
2875.000000	3.699827 
2874.000000	3.592753 
2873.000000	3.486871 
2872.000000	3.380179 
2871.000000	3.262495 
2870.000000	3.138637 
2869.000000	3.032279 
2868.000000	2.944827 
2867.000000	2.852392 
2866.000000	2.751350 
2865.000000	2.666020 
2864.000000	2.597069 
2863.000000	2.515578 
2862.000000	2.414679 
2861.000000	2.319192 
2860.000000	2.238821 
2859.000000	2.161145 
2858.000000	2.090167 
2857.000000	2.042889 
2856.000000	2.011537 
2855.000000	1.970934 
2854.000000	1.919531 
2853.000000	1.873922 
2852.000000	1.835966 
2851.000000	1.793980 
2850.000000	1.747775 
2849.000000	1.704907 
2848.000000	1.665687 
2847.000000	1.628041 
2846.000000	1.598072 
2845.000000	1.579689 
2844.000000	1.566267 
2843.000000	1.549506 
2842.000000	1.529550 
2841.000000	1.509046 
2840.000000	1.488137 
2839.000000	1.468300 
2838.000000	1.453828 
2837.000000	1.445889 
2836.000000	1.439785 
2835.000000	1.429581 
2834.000000	1.414537 
2833.000000	1.399016 
2832.000000	1.385259 
2831.000000	1.369285 
2830.000000	1.349711 
2829.000000	1.335167 
2828.000000	1.330614 
2827.000000	1.325273 
2826.000000	1.309108 
2825.000000	1.291918 
2824.000000	1.285052 
2823.000000	1.280283 
2822.000000	1.268339 
2821.000000	1.259374 
2820.000000	1.259279 
2819.000000	1.251006 
2818.000000	1.224112 
2817.000000	1.196265 
2816.000000	1.182103 
2815.000000	1.172304 
2814.000000	1.162934 
2813.000000	1.168489 
2812.000000	1.187276 
2811.000000	1.194405 
2810.000000	1.182579 
2809.000000	1.170063 
2808.000000	1.162457 
2807.000000	1.149630 
2806.000000	1.140880 
2805.000000	1.155400 
2804.000000	1.179885 
2803.000000	1.181912 
2802.000000	1.161623 
2801.000000	1.147294 
2800.000000	1.147842 
2799.000000	1.148986 
2798.000000	1.145505 
2797.000000	1.142454 
2796.000000	1.135587 
2795.000000	1.118850 
2794.000000	1.100564 
2793.000000	1.092386 
2792.000000	1.092529 
2791.000000	1.093101 
2790.000000	1.093673 
2789.000000	1.097798 
2788.000000	1.103377 
2787.000000	1.103782 
2786.000000	1.095509 
2785.000000	1.082754 
2784.000000	1.073050 
2783.000000	1.068639 
2782.000000	1.066374 
2781.000000	1.063418 
2780.000000	1.057362 
2779.000000	1.042747 
2778.000000	1.019787 
2777.000000	1.003456 
2776.000000	1.007866 
2775.000000	1.024150 
2774.000000	1.031875 
2773.000000	1.027059 
2772.000000	1.019144 
2771.000000	1.010799 
2770.000000	1.004242 
2769.000000	1.011729 
2768.000000	1.033997 
2767.000000	1.047253 
2766.000000	1.036286 
2765.000000	1.017260 
2764.000000	1.004934 
2763.000000	0.989699 
2762.000000	0.969123 
2761.000000	0.965142 
2760.000000	0.985145 
2759.000000	1.003313 
2758.000000	1.002335 
2757.000000	0.996589 
2756.000000	0.998759 
2755.000000	0.999355 
2754.000000	0.990867 
2753.000000	0.981163 
2752.000000	0.975298 
2751.000000	0.971937 
2750.000000	0.977492 
2749.000000	0.996375 
2748.000000	1.012492 
2747.000000	1.005887 
2746.000000	0.982308 
2745.000000	0.962758 
2744.000000	0.952100 
2743.000000	0.940203 
2742.000000	0.924897 
2741.000000	0.914788 
2740.000000	0.914335 
2739.000000	0.920939 
2738.000000	0.931310 
2737.000000	0.940847 
2736.000000	0.944089 
2735.000000	0.941491 
2734.000000	0.939369 
2733.000000	0.939011 
2732.000000	0.934815 
2731.000000	0.924134 
2730.000000	0.910520 
2729.000000	0.896024 
2728.000000	0.877594 
2727.000000	0.854611 
2726.000000	0.836777 
2725.000000	0.838351 
2724.000000	0.859689 
2723.000000	0.880622 
2722.000000	0.882840 
2721.000000	0.872898 
2720.000000	0.867199 
2719.000000	0.864219 
2718.000000	0.853276 
2717.000000	0.839781 
2716.000000	0.836038 
2715.000000	0.837135 
2714.000000	0.831675 
2713.000000	0.823068 
2712.000000	0.817036 
2711.000000	0.806140 
2710.000000	0.787329 
2709.000000	0.773358 
2708.000000	0.769066 
2707.000000	0.762367 
2706.000000	0.753903 
2705.000000	0.761699 
2704.000000	0.783443 
2703.000000	0.789856 
2702.000000	0.769019 
2701.000000	0.743746 
2700.000000	0.734353 
2699.000000	0.735735 
2698.000000	0.738763 
2697.000000	0.743389 
2696.000000	0.746464 
2695.000000	0.742411 
2694.000000	0.737047 
2693.000000	0.738191 
2692.000000	0.738549 
2691.000000	0.729823 
2690.000000	0.722479 
2689.000000	0.727415 
2688.000000	0.733184 
2687.000000	0.725340 
2686.000000	0.711607 
2685.000000	0.705623 
2684.000000	0.704622 
2683.000000	0.702595 
2682.000000	0.706553 
2681.000000	0.720071 
2680.000000	0.730466 
2679.000000	0.727939 
2678.000000	0.721120 
2677.000000	0.722265 
2676.000000	0.730013 
2675.000000	0.733828 
2674.000000	0.729155 
2673.000000	0.722312 
2672.000000	0.719523 
2671.000000	0.716567 
2670.000000	0.708699 
2669.000000	0.703811 
2668.000000	0.708675 
2667.000000	0.711035 
2666.000000	0.699615 
2665.000000	0.690627 
2664.000000	0.703597 
2663.000000	0.724053 
2662.000000	0.723814 
2661.000000	0.704455 
2660.000000	0.688862 
2659.000000	0.684165 
2658.000000	0.682497 
2657.000000	0.681924 
2656.000000	0.682210 
2655.000000	0.676679 
2654.000000	0.667214 
2653.000000	0.668096 
2652.000000	0.680971 
2651.000000	0.688791 
2650.000000	0.684094 
2649.000000	0.677227 
2648.000000	0.670599 
2647.000000	0.655961 
2646.000000	0.641798 
2645.000000	0.647544 
2644.000000	0.667572 
2643.000000	0.676226 
2642.000000	0.669002 
2641.000000	0.663566 
2640.000000	0.662708 
2639.000000	0.656032 
2638.000000	0.649023 
2637.000000	0.653433 
2636.000000	0.659084 
2635.000000	0.650000 
2634.000000	0.635266 
2633.000000	0.633215 
2632.000000	0.640082 
2631.000000	0.639963 
2630.000000	0.631237 
2629.000000	0.622677 
2628.000000	0.617098 
2627.000000	0.613403 
2626.000000	0.612235 
2625.000000	0.610351 
2624.000000	0.599145 
2623.000000	0.576019 
2622.000000	0.552177 
2621.000000	0.544023 
2620.000000	0.555229 
2619.000000	0.569915 
2618.000000	0.571036 
2617.000000	0.562381 
2616.000000	0.557637 
2615.000000	0.554919 
2614.000000	0.544691 
2613.000000	0.535869 
2612.000000	0.544309 
2611.000000	0.562405 
2610.000000	0.571656 
2609.000000	0.574922 
2608.000000	0.582933 
2607.000000	0.585913 
2606.000000	0.572395 
2605.000000	0.556588 
2604.000000	0.553441 
2603.000000	0.552058 
2602.000000	0.541138 
2601.000000	0.531888 
2600.000000	0.529646 
2599.000000	0.517487 
2598.000000	0.492501 
2597.000000	0.481271 
2596.000000	0.497245 
2595.000000	0.517725 
2594.000000	0.520730 
2593.000000	0.510644 
2592.000000	0.497555 
2591.000000	0.483298 
2590.000000	0.473928 
2589.000000	0.478720 
2588.000000	0.491213 
2587.000000	0.496029 
2586.000000	0.492787 
2585.000000	0.493264 
2584.000000	0.498294 
2583.000000	0.496816 
2582.000000	0.485444 
2581.000000	0.473928 
2580.000000	0.472617 
2579.000000	0.484395 
2578.000000	0.504803 
2577.000000	0.523734 
2576.000000	0.529813 
2575.000000	0.518965 
2574.000000	0.497579 
2573.000000	0.476241 
2572.000000	0.461745 
2571.000000	0.453877 
2570.000000	0.449252 
2569.000000	0.447273 
2568.000000	0.448107 
2567.000000	0.446438 
2566.000000	0.437927 
2565.000000	0.430607 
2564.000000	0.434494 
2563.000000	0.442838 
2562.000000	0.441741 
2561.000000	0.436544 
2560.000000	0.444412 
2559.000000	0.464129 
2558.000000	0.477433 
2557.000000	0.478386 
2556.000000	0.476884 
2555.000000	0.477051 
2554.000000	0.474214 
2553.000000	0.467562 
2552.000000	0.457930 
2551.000000	0.441598 
2550.000000	0.422072 
2549.000000	0.414633 
2548.000000	0.424623 
2547.000000	0.436663 
2546.000000	0.438904 
2545.000000	0.439214 
2544.000000	0.446105 
2543.000000	0.451779 
2542.000000	0.446820 
2541.000000	0.433588 
2540.000000	0.417876 
2539.000000	0.403618 
2538.000000	0.401735 
2537.000000	0.422263 
2536.000000	0.454497 
2535.000000	0.473761 
2534.000000	0.470995 
2533.000000	0.457358 
2532.000000	0.442957 
2531.000000	0.430488 
2530.000000	0.425553 
2529.000000	0.432038 
2528.000000	0.441193 
2527.000000	0.444197 
2526.000000	0.446653 
2525.000000	0.455451 
2524.000000	0.462937 
2523.000000	0.461006 
2522.000000	0.457310 
2521.000000	0.461244 
2520.000000	0.466966 
2519.000000	0.464224 
2518.000000	0.455331 
2517.000000	0.451540 
2516.000000	0.456881 
2515.000000	0.463962 
2514.000000	0.465011 
2513.000000	0.461626 
2512.000000	0.460314 
2511.000000	0.460481 
2510.000000	0.455641 
2509.000000	0.447010 
2508.000000	0.443601 
2507.000000	0.447392 
2506.000000	0.451564 
2505.000000	0.452780 
2504.000000	0.452566 
2503.000000	0.449085 
2502.000000	0.442552 
2501.000000	0.442862 
2500.000000	0.454282 
2499.000000	0.461506 
2498.000000	0.449752 
2497.000000	0.427699 
2496.000000	0.413465 
2495.000000	0.410985 
2494.000000	0.416135 
2493.000000	0.428509 
2492.000000	0.441980 
2491.000000	0.442767 
2490.000000	0.432586 
2489.000000	0.431513 
2488.000000	0.445318 
2487.000000	0.455236 
2486.000000	0.450134 
2485.000000	0.441455 
2484.000000	0.438642 
2483.000000	0.436782 
2482.000000	0.434684 
2481.000000	0.436711 
2480.000000	0.435161 
2479.000000	0.418376 
2478.000000	0.396609 
2477.000000	0.392818 
2476.000000	0.409722 
2475.000000	0.430297 
2474.000000	0.443792 
2473.000000	0.449109 
2472.000000	0.443434 
2471.000000	0.428771 
2470.000000	0.419950 
2469.000000	0.427627 
2468.000000	0.442433 
2467.000000	0.449872 
2466.000000	0.450587 
2465.000000	0.454092 
2464.000000	0.461530 
2463.000000	0.464725 
2462.000000	0.457930 
2461.000000	0.443696 
2460.000000	0.429511 
2459.000000	0.420975 
2458.000000	0.417113 
2457.000000	0.413560 
2456.000000	0.408101 
2455.000000	0.403165 
2454.000000	0.402712 
2453.000000	0.408482 
2452.000000	0.416207 
2451.000000	0.417637 
2450.000000	0.412106 
2449.000000	0.411248 
2448.000000	0.422358 
2447.000000	0.433707 
2446.000000	0.432562 
2445.000000	0.425863 
2444.000000	0.424337 
2443.000000	0.421953 
2442.000000	0.415015 
2441.000000	0.417804 
2440.000000	0.433039 
2439.000000	0.437903 
2438.000000	0.425863 
2437.000000	0.423645 
2436.000000	0.441193 
2435.000000	0.449872 
2434.000000	0.435829 
2433.000000	0.425553 
2432.000000	0.435328 
2431.000000	0.443744 
2430.000000	0.434398 
2429.000000	0.422763 
2428.000000	0.424456 
2427.000000	0.430774 
2426.000000	0.428128 
2425.000000	0.418806 
2424.000000	0.414061 
2423.000000	0.421142 
2422.000000	0.438785 
2421.000000	0.456857 
2420.000000	0.463032 
2419.000000	0.455141 
2418.000000	0.444173 
2417.000000	0.440573 
2416.000000	0.443720 
2415.000000	0.447487 
2414.000000	0.449585 
2413.000000	0.450134 
2412.000000	0.447392 
2411.000000	0.441622 
2410.000000	0.437545 
2409.000000	0.438261 
2408.000000	0.440573 
2407.000000	0.440001 
2406.000000	0.438880 
2405.000000	0.445079 
2404.000000	0.459909 
2403.000000	0.470876 
2402.000000	0.464391 
2401.000000	0.445365 
2400.000000	0.430822 
2399.000000	0.425839 
2398.000000	0.424027 
2397.000000	0.426673 
2396.000000	0.438380 
2395.000000	0.448894 
2394.000000	0.445127 
2393.000000	0.434374 
2392.000000	0.429558 
2391.000000	0.423717 
2390.000000	0.406932 
2389.000000	0.393104 
2388.000000	0.401163 
2387.000000	0.425028 
2386.000000	0.446987 
2385.000000	0.462484 
2384.000000	0.471687 
2383.000000	0.469064 
2382.000000	0.458955 
2381.000000	0.457549 
2380.000000	0.463914 
2379.000000	0.458312 
2378.000000	0.440597 
2377.000000	0.435638 
2376.000000	0.451636 
2375.000000	0.467562 
2374.000000	0.469517 
2373.000000	0.466060 
2372.000000	0.463628 
2371.000000	0.457668 
2370.000000	0.451087 
2369.000000	0.452303 
2368.000000	0.455975 
2367.000000	0.448465 
2366.000000	0.431251 
2365.000000	0.419521 
2364.000000	0.420975 
2363.000000	0.429606 
2362.000000	0.436353 
2361.000000	0.437402 
2360.000000	0.434851 
2359.000000	0.434660 
2358.000000	0.443077 
2357.000000	0.461697 
2356.000000	0.482964 
2355.000000	0.491094 
2354.000000	0.475716 
2353.000000	0.447463 
2352.000000	0.430107 
2351.000000	0.432419 
2350.000000	0.441551 
2349.000000	0.446486 
2348.000000	0.450825 
2347.000000	0.458860 
2346.000000	0.468587 
2345.000000	0.481510 
2344.000000	0.498104 
2343.000000	0.505566 
2342.000000	0.493407 
2341.000000	0.476360 
2340.000000	0.476765 
2339.000000	0.492191 
2338.000000	0.505304 
2337.000000	0.513601 
2336.000000	0.521922 
2335.000000	0.522851 
2334.000000	0.512194 
2333.000000	0.508308 
2332.000000	0.529885 
2331.000000	0.567412 
2330.000000	0.595998 
2329.000000	0.602746 
2328.000000	0.586724 
2327.000000	0.550627 
2326.000000	0.506424 
2325.000000	0.472950 
2324.000000	0.457644 
2323.000000	0.456142 
2322.000000	0.471162 
2321.000000	0.508165 
2320.000000	0.552678 
2319.000000	0.577116 
2318.000000	0.574064 
2317.000000	0.558376 
2316.000000	0.539803 
2315.000000	0.518393 
2314.000000	0.503015 
2313.000000	0.507831 
2312.000000	0.530052 
2311.000000	0.549674 
2310.000000	0.553131 
2309.000000	0.543832 
2308.000000	0.532531 
2307.000000	0.525522 
2306.000000	0.522899 
2305.000000	0.523829 
2304.000000	0.528478 
2303.000000	0.533890 
2302.000000	0.533199 
2301.000000	0.525426 
2300.000000	0.519061 
2299.000000	0.520205 
2298.000000	0.527334 
2297.000000	0.541615 
2296.000000	0.567460 
2295.000000	0.597524 
2294.000000	0.615644 
2293.000000	0.617194 
2292.000000	0.608801 
2291.000000	0.590300 
2290.000000	0.559902 
2289.000000	0.534009 
2288.000000	0.533843 
2287.000000	0.553607 
2286.000000	0.570344 
2285.000000	0.579094 
2284.000000	0.591301 
2283.000000	0.607275 
2282.000000	0.616884 
2281.000000	0.616717 
2280.000000	0.602984 
2279.000000	0.566053 
2278.000000	0.515604 
2277.000000	0.488042 
2276.000000	0.505590 
2275.000000	0.548815 
2274.000000	0.587224 
2273.000000	0.613379 
2272.000000	0.630712 
2271.000000	0.634980 
2270.000000	0.625824 
2269.000000	0.615286 
2268.000000	0.612783 
2267.000000	0.614547 
2266.000000	0.613927 
2265.000000	0.611972 
2264.000000	0.612425 
2263.000000	0.615525 
2262.000000	0.619316 
2261.000000	0.622272 
2260.000000	0.623130 
2259.000000	0.618648 
2258.000000	0.602579 
2257.000000	0.571966 
2256.000000	0.534987 
2255.000000	0.510740 
2254.000000	0.516057 
2253.000000	0.550532 
2252.000000	0.594830 
2251.000000	0.624251 
2250.000000	0.628161 
2249.000000	0.618267 
2248.000000	0.615167 
2247.000000	0.625967 
2246.000000	0.640296 
2245.000000	0.647473 
2244.000000	0.647974 
2243.000000	0.644040 
2242.000000	0.633883 
2241.000000	0.620722 
2240.000000	0.614404 
2239.000000	0.617575 
2238.000000	0.622415 
2237.000000	0.623559 
2236.000000	0.620603 
2235.000000	0.610995 
2234.000000	0.596547 
2233.000000	0.592184 
2232.000000	0.605535 
2231.000000	0.617647 
2230.000000	0.607776 
2229.000000	0.585603 
2228.000000	0.574541 
2227.000000	0.576233 
2226.000000	0.579047 
2225.000000	0.585174 
2224.000000	0.602579 
2223.000000	0.625681 
2222.000000	0.645899 
2221.000000	0.665497 
2220.000000	0.684070 
2219.000000	0.691342 
2218.000000	0.684213 
2217.000000	0.672578 
2216.000000	0.657963 
2215.000000	0.629186 
2214.000000	0.587749 
2213.000000	0.558495 
2212.000000	0.565004 
2211.000000	0.603342 
2210.000000	0.646829 
2209.000000	0.673174 
2208.000000	0.683093 
2207.000000	0.693750 
2206.000000	0.715780 
2205.000000	0.741052 
2204.000000	0.751852 
2203.000000	0.737476 
2202.000000	0.703597 
2201.000000	0.670003 
2200.000000	0.658488 
2199.000000	0.674200 
2198.000000	0.701069 
2197.000000	0.718784 
2196.000000	0.720429 
2195.000000	0.709152 
2194.000000	0.688171 
2193.000000	0.663018 
2192.000000	0.641083 
2191.000000	0.623226 
2190.000000	0.607633 
2189.000000	0.605177 
2188.000000	0.630617 
2187.000000	0.673985 
2186.000000	0.704503 
2185.000000	0.708985 
2184.000000	0.703406 
2183.000000	0.702357 
2182.000000	0.701141 
2181.000000	0.692272 
2180.000000	0.677895 
2179.000000	0.661706 
2178.000000	0.645422 
2177.000000	0.633001 
2176.000000	0.626015 
2175.000000	0.620937 
2174.000000	0.620293 
2173.000000	0.636601 
2172.000000	0.671553 
2171.000000	0.702452 
2170.000000	0.703215 
2169.000000	0.673556 
2168.000000	0.636959 
2167.000000	0.611710 
2166.000000	0.593137 
2165.000000	0.565099 
2164.000000	0.523519 
2163.000000	0.487756 
2162.000000	0.486850 
2161.000000	0.530481 
2160.000000	0.597453 
2159.000000	0.656676 
2158.000000	0.695705 
2157.000000	0.717997 
2156.000000	0.719618 
2155.000000	0.687432 
2154.000000	0.624465 
2153.000000	0.562381 
2152.000000	0.539398 
2151.000000	0.566601 
2150.000000	0.619578 
2149.000000	0.663518 
2148.000000	0.682878 
2147.000000	0.686192 
2146.000000	0.686788 
2145.000000	0.687241 
2144.000000	0.681257 
2143.000000	0.663113 
2142.000000	0.636863 
2141.000000	0.622725 
2140.000000	0.642609 
2139.000000	0.691914 
2138.000000	0.738763 
2137.000000	0.758481 
2136.000000	0.751614 
2135.000000	0.724458 
2134.000000	0.680971 
2133.000000	0.640344 
2132.000000	0.631880 
2131.000000	0.660634 
2130.000000	0.698518 
2129.000000	0.719213 
2128.000000	0.721907 
2127.000000	0.717449 
2126.000000	0.710606 
2125.000000	0.701642 
2124.000000	0.690746 
2123.000000	0.679254 
2122.000000	0.673794 
2121.000000	0.683093 
2120.000000	0.702500 
2119.000000	0.711846 
2118.000000	0.701498 
2117.000000	0.688123 
2116.000000	0.690674 
2115.000000	0.705122 
2114.000000	0.716209 
2113.000000	0.720858 
2112.000000	0.725126 
2111.000000	0.729227 
2110.000000	0.728631 
2109.000000	0.723075 
2108.000000	0.716733 
2107.000000	0.713467 
2106.000000	0.713396 
2105.000000	0.714206 
2104.000000	0.712323 
2103.000000	0.701928 
2102.000000	0.677299 
2101.000000	0.646114 
2100.000000	0.634193 
2099.000000	0.657033 
2098.000000	0.691723 
2097.000000	0.702095 
2096.000000	0.686860 
2095.000000	0.676131 
2094.000000	0.688648 
2093.000000	0.717449 
2092.000000	0.747370 
2091.000000	0.760817 
2090.000000	0.741481 
2089.000000	0.695347 
2088.000000	0.654602 
2087.000000	0.641131 
2086.000000	0.640439 
2085.000000	0.627589 
2084.000000	0.604248 
2083.000000	0.595378 
2082.000000	0.616860 
2081.000000	0.659370 
2080.000000	0.699543 
2079.000000	0.724172 
2078.000000	0.739192 
2077.000000	0.755548 
2076.000000	0.772953 
2075.000000	0.780534 
2074.000000	0.769400 
2073.000000	0.742006 
2072.000000	0.712299 
2071.000000	0.696277 
2070.000000	0.693607 
2069.000000	0.685477 
2068.000000	0.661826 
2067.000000	0.640439 
2066.000000	0.643968 
2065.000000	0.668764 
2064.000000	0.695443 
2063.000000	0.717544 
2062.000000	0.742316 
2061.000000	0.769686 
2060.000000	0.788426 
2059.000000	0.788354 
2058.000000	0.766444 
2057.000000	0.726366 
2056.000000	0.676202 
2055.000000	0.628089 
2054.000000	0.596952 
2053.000000	0.593924 
2052.000000	0.617408 
2051.000000	0.655055 
2050.000000	0.695395 
2049.000000	0.726008 
2048.000000	0.727653 
2047.000000	0.696229 
2046.000000	0.664544 
2045.000000	0.669860 
2044.000000	0.703430 
2043.000000	0.725603 
2042.000000	0.722193 
2041.000000	0.710344 
2040.000000	0.700616 
2039.000000	0.689220 
2038.000000	0.681757 
2037.000000	0.690007 
2036.000000	0.709819 
2035.000000	0.721907 
2034.000000	0.714445 
2033.000000	0.698113 
2032.000000	0.693488 
2031.000000	0.706648 
2030.000000	0.723147 
2029.000000	0.729036 
2028.000000	0.725603 
2027.000000	0.717687 
2026.000000	0.707697 
2025.000000	0.708580 
2024.000000	0.733900 
2023.000000	0.768280 
2022.000000	0.777459 
2021.000000	0.753259 
2020.000000	0.721192 
2019.000000	0.702428 
2018.000000	0.696611 
2017.000000	0.701832 
2016.000000	0.718283 
2015.000000	0.733995 
2014.000000	0.733518 
2013.000000	0.720953 
2012.000000	0.714659 
2011.000000	0.723695 
2010.000000	0.742745 
2009.000000	0.763273 
2008.000000	0.777101 
2007.000000	0.776362 
2006.000000	0.759983 
2005.000000	0.738549 
2004.000000	0.726628 
2003.000000	0.729417 
2002.000000	0.738024 
2001.000000	0.741028 
2000.000000	0.738835 
1999.000000	0.742030 
1998.000000	0.754809 
1997.000000	0.768208 
1996.000000	0.772428 
1995.000000	0.769853 
1994.000000	0.770330 
1993.000000	0.778126 
1992.000000	0.787115 
1991.000000	0.788259 
1990.000000	0.780749 
1989.000000	0.774979 
1988.000000	0.783967 
1987.000000	0.809001 
1986.000000	0.836801 
1985.000000	0.853490 
1984.000000	0.856876 
1983.000000	0.852155 
1982.000000	0.841164 
1981.000000	0.823402 
1980.000000	0.802612 
1979.000000	0.784349 
1978.000000	0.771403 
1977.000000	0.766706 
1976.000000	0.773310 
1975.000000	0.785493 
1974.000000	0.790262 
1973.000000	0.785064 
1972.000000	0.780987 
1971.000000	0.784134 
1970.000000	0.788187 
1969.000000	0.788736 
1968.000000	0.788760 
1967.000000	0.787687 
1966.000000	0.783348 
1965.000000	0.783777 
1964.000000	0.798153 
1963.000000	0.816965 
1962.000000	0.820207 
1961.000000	0.805926 
1960.000000	0.792551 
1959.000000	0.794982 
1958.000000	0.810599 
1957.000000	0.827240 
1956.000000	0.834465 
1955.000000	0.828742 
1954.000000	0.815367 
1953.000000	0.805377 
1952.000000	0.807452 
1951.000000	0.820827 
1950.000000	0.835275 
1949.000000	0.840449 
1948.000000	0.837206 
1947.000000	0.835943 
1946.000000	0.842714 
1945.000000	0.851845 
1944.000000	0.855660 
1943.000000	0.854587 
1942.000000	0.854301 
1941.000000	0.859284 
1940.000000	0.870847 
1939.000000	0.884771 
1938.000000	0.890660 
1937.000000	0.880098 
1936.000000	0.855708 
1935.000000	0.829100 
1934.000000	0.809979 
1933.000000	0.803256 
1932.000000	0.812196 
1931.000000	0.835585 
1930.000000	0.864839 
1929.000000	0.891399 
1928.000000	0.915575 
1927.000000	0.941681 
1926.000000	0.968241 
1925.000000	0.987243 
1924.000000	0.989484 
1923.000000	0.967049 
1922.000000	0.919270 
1921.000000	0.860524 
1920.000000	0.816106 
1919.000000	0.802683 
1918.000000	0.815176 
1917.000000	0.835394 
1916.000000	0.848770 
1915.000000	0.851559 
1914.000000	0.848007 
1913.000000	0.845360 
1912.000000	0.848007 
1911.000000	0.855898 
1910.000000	0.870704 
1909.000000	0.898790 
1908.000000	0.937724 
1907.000000	0.968003 
1906.000000	0.971865 
1905.000000	0.955581 
1904.000000	0.937891 
1903.000000	0.924944 
1902.000000	0.911545 
1901.000000	0.898694 
1900.000000	0.892376 
1899.000000	0.891041 
1898.000000	0.888991 
1897.000000	0.885820 
1896.000000	0.884246 
1895.000000	0.883412 
1894.000000	0.881028 
1893.000000	0.878047 
1892.000000	0.876784 
1891.000000	0.875830 
1890.000000	0.870704 
1889.000000	0.860190 
1888.000000	0.851440 
1887.000000	0.853085 
1886.000000	0.863051 
1885.000000	0.868749 
1884.000000	0.861191 
1883.000000	0.845956 
1882.000000	0.837850 
1881.000000	0.846576 
1880.000000	0.868582 
1879.000000	0.888633 
1878.000000	0.892066 
1877.000000	0.878858 
1876.000000	0.864267 
1875.000000	0.860381 
1874.000000	0.863599 
1873.000000	0.864720 
1872.000000	0.862956 
1871.000000	0.860452 
1870.000000	0.854635 
1869.000000	0.846648 
1868.000000	0.845503 
1867.000000	0.854706 
1866.000000	0.865387 
1865.000000	0.871872 
1864.000000	0.880336 
1863.000000	0.894570 
1862.000000	0.907135 
1861.000000	0.912761 
1860.000000	0.916099 
1859.000000	0.921463 
1858.000000	0.926232 
1857.000000	0.926470 
1856.000000	0.918149 
1855.000000	0.895500 
1854.000000	0.863313 
1853.000000	0.843572 
1852.000000	0.852441 
1851.000000	0.876379 
1850.000000	0.889420 
1849.000000	0.885748 
1848.000000	0.879216 
1847.000000	0.877451 
1846.000000	0.875711 
1845.000000	0.870680 
1844.000000	0.866770 
1843.000000	0.868797 
1842.000000	0.876259 
1841.000000	0.884842 
1840.000000	0.891780 
1839.000000	0.897598 
1838.000000	0.902533 
1837.000000	0.904774 
1836.000000	0.904417 
1835.000000	0.904202 
1834.000000	0.902986 
1833.000000	0.896549 
1832.000000	0.886821 
1831.000000	0.880956 
1830.000000	0.881361 
1829.000000	0.885462 
1828.000000	0.893449 
1827.000000	0.905156 
1826.000000	0.911307 
1825.000000	0.903010 
1824.000000	0.887775 
1823.000000	0.881814 
1822.000000	0.889635 
1821.000000	0.902175 
1820.000000	0.909519 
1819.000000	0.903940 
1818.000000	0.882458 
1817.000000	0.859212 
1816.000000	0.860190 
1815.000000	0.890541 
1814.000000	0.922346 
1813.000000	0.928235 
1812.000000	0.910806 
1811.000000	0.887751 
1810.000000	0.867915 
1809.000000	0.853824 
1808.000000	0.849366 
1807.000000	0.853347 
1806.000000	0.858426 
1805.000000	0.862073 
1804.000000	0.867128 
1803.000000	0.870394 
1802.000000	0.865554 
1801.000000	0.856828 
1800.000000	0.855231 
1799.000000	0.863003 
1798.000000	0.874900 
1797.000000	0.889325 
1796.000000	0.904822 
1795.000000	0.912833 
1794.000000	0.907588 
1793.000000	0.898909 
1792.000000	0.901508 
1791.000000	0.915527 
1790.000000	0.926375 
1789.000000	0.922703 
1788.000000	0.908374 
1787.000000	0.895166 
1786.000000	0.886178 
1785.000000	0.873851 
1784.000000	0.856637 
1783.000000	0.845932 
1782.000000	0.850534 
1781.000000	0.865721 
1780.000000	0.882506 
1779.000000	0.895094 
1778.000000	0.897693 
1777.000000	0.889515 
1776.000000	0.884628 
1775.000000	0.898051 
1774.000000	0.921463 
1773.000000	0.930070 
1772.000000	0.914549 
1771.000000	0.889658 
1770.000000	0.873780 
1769.000000	0.873780 
1768.000000	0.886678 
1767.000000	0.901150 
1766.000000	0.902771 
1765.000000	0.891447 
1764.000000	0.884795 
1763.000000	0.893473 
1762.000000	0.905656 
1761.000000	0.908875 
1760.000000	0.908017 
1759.000000	0.908660 
1758.000000	0.904870 
1757.000000	0.897669 
1756.000000	0.900626 
1755.000000	0.915098 
1754.000000	0.923490 
1753.000000	0.917005 
1752.000000	0.908041 
1751.000000	0.906252 
1750.000000	0.904655 
1749.000000	0.897073 
1748.000000	0.890421 
1747.000000	0.893926 
1746.000000	0.906062 
1745.000000	0.916910 
1744.000000	0.918102 
1743.000000	0.910401 
1742.000000	0.903964 
1741.000000	0.909805 
1740.000000	0.927281 
1739.000000	0.944232 
1738.000000	0.950407 
1737.000000	0.947475 
1736.000000	0.943446 
1735.000000	0.942063 
1734.000000	0.941538 
1733.000000	0.940227 
1732.000000	0.938940 
1731.000000	0.937867 
1730.000000	0.932598 
1729.000000	0.919365 
1728.000000	0.903987 
1727.000000	0.896787 
1726.000000	0.898408 
1725.000000	0.900673 
1724.000000	0.902867 
1723.000000	0.908541 
1722.000000	0.909066 
1721.000000	0.893092 
1720.000000	0.872159 
1719.000000	0.868630 
1718.000000	0.881910 
1717.000000	0.894069 
1716.000000	0.901627 
1715.000000	0.911498 
1714.000000	0.916504 
1713.000000	0.905609 
1712.000000	0.888681 
1711.000000	0.883293 
1710.000000	0.887227 
1709.000000	0.886511 
1708.000000	0.879216 
1707.000000	0.873565 
1706.000000	0.873446 
1705.000000	0.880169 
1704.000000	0.895333 
1703.000000	0.912594 
1702.000000	0.920653 
1701.000000	0.921010 
1700.000000	0.924825 
1699.000000	0.929808 
1698.000000	0.921082 
1697.000000	0.899696 
1696.000000	0.884580 
1695.000000	0.883531 
1694.000000	0.887870 
1693.000000	0.894165 
1692.000000	0.906300 
1691.000000	0.917220 
1690.000000	0.914120 
1689.000000	0.900101 
1688.000000	0.890254 
1687.000000	0.888395 
1686.000000	0.883841 
1685.000000	0.870752 
1684.000000	0.858855 
1683.000000	0.861454 
1682.000000	0.875616 
1681.000000	0.884318 
1680.000000	0.880527 
1679.000000	0.877213 
1678.000000	0.884079 
1677.000000	0.892066 
1676.000000	0.892519 
1675.000000	0.893425 
1674.000000	0.902509 
1673.000000	0.913786 
1672.000000	0.921392 
1671.000000	0.927662 
1670.000000	0.930023 
1669.000000	0.921463 
1668.000000	0.907564 
1667.000000	0.900912 
1666.000000	0.898861 
1665.000000	0.890421 
1664.000000	0.880980 
1663.000000	0.884509 
1662.000000	0.897145 
1661.000000	0.906682 
1660.000000	0.917077 
1659.000000	0.934696 
1658.000000	0.945425 
1657.000000	0.937318 
1656.000000	0.926446 
1655.000000	0.931715 
1654.000000	0.944733 
1653.000000	0.952291 
1652.000000	0.962162 
1651.000000	0.979471 
1650.000000	0.987815 
1649.000000	0.977182 
1648.000000	0.961565 
1647.000000	0.950813 
1646.000000	0.936555 
1645.000000	0.918698 
1644.000000	0.912928 
1643.000000	0.921893 
1642.000000	0.928449 
1641.000000	0.925421 
1640.000000	0.925230 
1639.000000	0.936174 
1638.000000	0.950098 
1637.000000	0.957202 
1636.000000	0.958991 
1635.000000	0.962281 
1634.000000	0.967860 
1633.000000	0.969624 
1632.000000	0.965237 
1631.000000	0.961089 
1630.000000	0.961279 
1629.000000	0.960159 
1628.000000	0.956296 
1627.000000	0.960731 
1626.000000	0.975871 
1625.000000	0.984001 
1624.000000	0.975251 
1623.000000	0.964808 
1622.000000	0.965905 
1621.000000	0.971436 
1620.000000	0.976753 
1619.000000	0.987458 
1618.000000	0.994062 
1617.000000	0.978064 
1616.000000	0.952410 
1615.000000	0.952267 
1614.000000	0.978708 
1613.000000	0.997138 
1612.000000	0.992608 
1611.000000	0.982737 
1610.000000	0.976490 
1609.000000	0.967025 
1608.000000	0.960326 
1607.000000	0.968599 
1606.000000	0.982213 
1605.000000	0.984215 
1604.000000	0.980687 
1603.000000	0.985193 
1602.000000	0.989389 
1601.000000	0.978112 
1600.000000	0.959038 
1599.000000	0.952529 
1598.000000	0.963330 
1597.000000	0.977563 
1596.000000	0.979948 
1595.000000	0.964760 
1594.000000	0.938701 
1593.000000	0.918722 
1592.000000	0.917339 
1591.000000	0.928139 
1590.000000	0.933361 
1589.000000	0.926661 
1588.000000	0.918745 
1587.000000	0.920176 
1586.000000	0.927591 
1585.000000	0.930213 
1584.000000	0.925564 
1583.000000	0.922894 
1582.000000	0.930404 
1581.000000	0.943017 
1580.000000	0.948309 
1579.000000	0.941467 
1578.000000	0.928640 
1577.000000	0.917506 
1576.000000	0.913143 
1575.000000	0.918292 
1574.000000	0.928330 
1573.000000	0.932025 
1572.000000	0.925731 
1571.000000	0.919103 
1570.000000	0.918531 
1569.000000	0.919270 
1568.000000	0.921249 
1567.000000	0.933504 
1566.000000	0.953817 
1565.000000	0.963759 
1564.000000	0.954341 
1563.000000	0.938105 
1562.000000	0.927758 
1561.000000	0.924062 
1560.000000	0.928139 
1559.000000	0.944399 
1558.000000	0.966310 
1557.000000	0.979566 
1556.000000	0.981259 
1555.000000	0.975871 
1554.000000	0.959420 
1553.000000	0.930428 
1552.000000	0.907015 
1551.000000	0.904369 
1550.000000	0.909876 
1549.000000	0.908946 
1548.000000	0.912380 
1547.000000	0.927257 
1546.000000	0.932574 
1545.000000	0.918126 
1544.000000	0.911140 
1543.000000	0.929236 
1542.000000	0.946545 
1541.000000	0.940871 
1540.000000	0.930047 
1539.000000	0.932884 
1538.000000	0.937724 
1537.000000	0.934529 
1536.000000	0.937509 
1535.000000	0.957059 
1534.000000	0.981903 
1533.000000	1.000428 
1532.000000	1.014208 
1531.000000	1.024603 
1530.000000	1.025009 
1529.000000	1.013135 
1528.000000	0.998854 
1527.000000	0.995016 
1526.000000	1.001071 
1525.000000	1.000905 
1524.000000	0.984096 
1523.000000	0.962328 
1522.000000	0.952816 
1521.000000	0.955677 
1520.000000	0.965261 
1519.000000	0.984501 
1518.000000	1.007914 
1517.000000	1.014375 
1516.000000	0.999665 
1515.000000	0.988030 
1514.000000	0.990271 
1513.000000	0.987100 
1512.000000	0.974321 
1511.000000	0.978684 
1510.000000	1.008081 
1509.000000	1.033616 
1508.000000	1.039433 
1507.000000	1.042199 
1506.000000	1.049828 
1505.000000	1.051282 
1504.000000	1.051521 
1503.000000	1.065897 
1502.000000	1.081228 
1501.000000	1.073741 
1500.000000	1.057839 
1499.000000	1.063919 
1498.000000	1.083612 
1497.000000	1.088285 
1496.000000	1.082372 
1495.000000	1.088428 
1494.000000	1.103067 
1493.000000	1.113557 
1492.000000	1.132035 
1491.000000	1.171040 
1490.000000	1.214122 
1489.000000	1.240181 
1488.000000	1.254892 
1487.000000	1.270580 
1486.000000	1.286458 
1485.000000	1.303505 
1484.000000	1.335453 
1483.000000	1.385688 
1482.000000	1.437783 
1481.000000	1.477217 
1480.000000	1.512813 
1479.000000	1.566290 
1478.000000	1.647257 
1477.000000	1.743769 
1476.000000	1.837778 
1475.000000	1.926016 
1474.000000	2.019548 
1473.000000	2.125358 
1472.000000	2.244615 
1471.000000	2.381014 
1470.000000	2.533864 
1469.000000	2.687692 
1468.000000	2.832961 
1467.000000	2.978205 
1466.000000	3.126049 
1465.000000	3.253817 
1464.000000	3.350114 
1463.000000	3.433823 
1462.000000	3.515863 
1461.000000	3.568267 
1460.000000	3.566837 
1459.000000	3.524446 
1458.000000	3.461885 
1457.000000	3.378605 
1456.000000	3.278040 
1455.000000	3.177547 
1454.000000	3.078269 
1453.000000	2.964448 
1452.000000	2.842044 
1451.000000	2.731275 
1450.000000	2.624177 
1449.000000	2.500963 
1448.000000	2.382898 
1447.000000	2.308821 
1446.000000	2.269029 
1445.000000	2.224159 
1444.000000	2.173256 
1443.000000	2.140688 
1442.000000	2.120041 
1441.000000	2.089309 
1440.000000	2.060580 
1439.000000	2.054238 
1438.000000	2.058148 
1437.000000	2.053427 
1436.000000	2.053689 
1435.000000	2.073097 
1434.000000	2.096223 
1433.000000	2.103900 
1432.000000	2.105212 
1431.000000	2.114892 
1430.000000	2.131485 
1429.000000	2.148842 
1428.000000	2.172613 
1427.000000	2.209877 
1426.000000	2.254629 
1425.000000	2.292609 
1424.000000	2.323746 
1423.000000	2.369379 
1422.000000	2.443885 
1421.000000	2.526712 
1420.000000	2.587580 
1419.000000	2.630519 
1418.000000	2.680873 
1417.000000	2.741670 
1416.000000	2.801752 
1415.000000	2.871394 
1414.000000	2.964472 
1413.000000	3.062963 
1412.000000	3.139400 
1411.000000	3.197073 
1410.000000	3.253459 
1409.000000	3.310418 
1408.000000	3.371453 
1407.000000	3.451704 
1406.000000	3.543162 
1405.000000	3.608608 
1404.000000	3.638792 
1403.000000	3.668880 
1402.000000	3.720855 
1401.000000	3.776836 
1400.000000	3.826689 
1399.000000	3.883719 
1398.000000	3.940987 
1397.000000	3.970050 
1396.000000	3.971695 
1395.000000	3.973078 
1394.000000	3.974127 
1393.000000	3.952980 
1392.000000	3.919291 
1391.000000	3.907060 
1390.000000	3.920865 
1389.000000	3.942871 
1388.000000	3.973317 
1387.000000	4.019618 
1386.000000	4.063487 
1385.000000	4.084801 
1384.000000	4.093432 
1383.000000	4.105758 
1382.000000	4.111623 
1381.000000	4.096698 
1380.000000	4.071092 
1379.000000	4.052639 
1378.000000	4.038572 
1377.000000	4.012560 
1376.000000	3.968358 
1375.000000	3.914260 
1374.000000	3.861713 
1373.000000	3.814864 
1372.000000	3.770995 
1371.000000	3.728175 
1370.000000	3.686785 
1369.000000	3.644728 
1368.000000	3.601884 
1367.000000	3.568243 
1366.000000	3.552556 
1365.000000	3.547787 
1364.000000	3.543829 
1363.000000	3.549432 
1362.000000	3.574609 
1361.000000	3.607416 
1360.000000	3.631544 
1359.000000	3.656077 
1358.000000	3.694701 
1357.000000	3.740763 
1356.000000	3.786611 
1355.000000	3.848028 
1354.000000	3.933811 
1353.000000	4.024600 
1352.000000	4.105162 
1351.000000	4.186773 
1350.000000	4.271817 
1349.000000	4.342794 
1348.000000	4.404783 
1347.000000	4.487991 
1346.000000	4.590368 
1345.000000	4.676985 
1344.000000	4.747700 
1343.000000	4.839015 
1342.000000	4.953503 
1341.000000	5.052351 
1340.000000	5.120062 
1339.000000	5.174612 
1338.000000	5.214786 
1337.000000	5.223631 
1336.000000	5.212068 
1335.000000	5.204010 
1334.000000	5.186271 
1333.000000	5.130624 
1332.000000	5.041003 
1331.000000	4.941797 
1330.000000	4.835295 
1329.000000	4.714012 
1328.000000	4.583692 
1327.000000	4.450869 
1326.000000	4.304289 
1325.000000	4.139423 
1324.000000	3.971958 
1323.000000	3.814816 
1322.000000	3.660511 
1321.000000	3.502917 
1320.000000	3.354024 
1319.000000	3.228759 
1318.000000	3.126978 
1317.000000	3.036975 
1316.000000	2.948045 
1315.000000	2.855944 
1314.000000	2.760386 
1313.000000	2.664136 
1312.000000	2.578878 
1311.000000	2.525615 
1310.000000	2.511978 
1309.000000	2.516508 
1308.000000	2.514481 
1307.000000	2.509832 
1306.000000	2.513146 
1305.000000	2.513027 
1304.000000	2.499651 
1303.000000	2.491068 
1302.000000	2.492928 
1301.000000	2.474164 
1300.000000	2.418303 
1299.000000	2.358865 
1298.000000	2.319860 
1297.000000	2.278542 
1296.000000	2.220582 
1295.000000	2.174592 
1294.000000	2.152991 
1293.000000	2.125072 
1292.000000	2.077627 
1291.000000	2.037906 
1290.000000	2.017188 
1289.000000	1.995229 
1288.000000	1.971459 
1287.000000	1.967096 
1286.000000	1.974606 
1285.000000	1.966929 
1284.000000	1.953005 
1283.000000	1.960730 
1282.000000	1.979851 
1281.000000	1.980495 
1280.000000	1.972293 
1279.000000	1.985740 
1278.000000	2.017903 
1277.000000	2.046918 
1276.000000	2.077031 
1275.000000	2.123618 
1274.000000	2.179384 
1273.000000	2.229952 
1272.000000	2.279019 
1271.000000	2.331304 
1270.000000	2.377390 
1269.000000	2.416229 
1268.000000	2.464795 
1267.000000	2.529668 
1266.000000	2.590513 
1265.000000	2.624034 
1264.000000	2.628588 
1263.000000	2.619528 
1262.000000	2.608895 
1261.000000	2.596616 
1260.000000	2.579760 
1259.000000	2.562499 
1258.000000	2.546930 
1257.000000	2.522349 
1256.000000	2.484798 
1255.000000	2.454710 
1254.000000	2.447032 
1253.000000	2.438426 
1252.000000	2.403545 
1251.000000	2.359151 
1250.000000	2.332353 
1249.000000	2.311944 
1248.000000	2.280044 
1247.000000	2.251625 
1246.000000	2.238893 
1245.000000	2.218699 
1244.000000	2.179598 
1243.000000	2.149963 
1242.000000	2.141809 
1241.000000	2.124214 
1240.000000	2.086257 
1239.000000	2.059030 
1238.000000	2.048897 
1237.000000	2.022457 
1236.000000	1.976203 
1235.000000	1.944708 
1234.000000	1.929354 
1233.000000	1.895785 
1232.000000	1.844954 
1231.000000	1.809620 
1230.000000	1.783704 
1229.000000	1.734375 
1228.000000	1.673197 
1227.000000	1.641440 
1226.000000	1.638579 
1225.000000	1.631236 
1224.000000	1.612138 
1223.000000	1.593542 
1222.000000	1.570963 
1221.000000	1.540660 
1220.000000	1.523518 
1219.000000	1.531624 
1218.000000	1.541805 
1217.000000	1.532769 
1216.000000	1.518607 
1215.000000	1.520323 
1214.000000	1.532244 
1213.000000	1.536417 
1212.000000	1.531410 
1211.000000	1.531124 
1210.000000	1.543927 
1209.000000	1.562523 
1208.000000	1.574444 
1207.000000	1.577758 
1206.000000	1.576757 
1205.000000	1.567697 
1204.000000	1.546740 
1203.000000	1.527261 
1202.000000	1.522040 
1201.000000	1.516866 
1200.000000	1.492166 
1199.000000	1.458096 
1198.000000	1.432108 
1197.000000	1.402735 
1196.000000	1.357173 
1195.000000	1.317191 
1194.000000	1.304197 
1193.000000	1.298284 
1192.000000	1.274108 
1191.000000	1.241850 
1190.000000	1.215529 
1189.000000	1.186394 
1188.000000	1.161694 
1187.000000	1.173353 
1186.000000	1.215815 
1185.000000	1.241064 
1184.000000	1.238274 
1183.000000	1.244139 
1182.000000	1.259231 
1181.000000	1.243734 
1180.000000	1.206684 
1179.000000	1.202321 
1178.000000	1.233172 
1177.000000	1.253008 
1176.000000	1.261544 
1175.000000	1.297044 
1174.000000	1.352190 
1173.000000	1.392006 
1172.000000	1.432967 
1171.000000	1.507568 
1170.000000	1.589274 
1169.000000	1.633834 
1168.000000	1.662135 
1167.000000	1.724100 
1166.000000	1.821517 
1165.000000	1.919794 
1164.000000	2.008366 
1163.000000	2.102065 
1162.000000	2.211380 
1161.000000	2.338004 
1160.000000	2.481365 
1159.000000	2.631831 
1158.000000	2.770876 
1157.000000	2.886962 
1156.000000	2.986145 
1155.000000	3.085970 
1154.000000	3.196978 
1153.000000	3.310441 
1152.000000	3.412270 
1151.000000	3.503870 
1150.000000	3.590154 
1149.000000	3.657245 
1148.000000	3.695917 
1147.000000	3.731298 
1146.000000	3.785943 
1145.000000	3.836083 
1144.000000	3.858757 
1143.000000	3.887629 
1142.000000	3.960013 
1141.000000	4.046964 
1140.000000	4.106926 
1139.000000	4.156780 
1138.000000	4.228138 
1137.000000	4.305052 
1136.000000	4.370665 
1135.000000	4.447650 
1134.000000	4.541826 
1133.000000	4.614758 
1132.000000	4.662084 
1131.000000	4.730463 
1130.000000	4.825615 
1129.000000	4.892659 
1128.000000	4.915690 
1127.000000	4.936885 
1126.000000	4.962205 
1125.000000	4.951882 
1124.000000	4.911279 
1123.000000	4.889559 
1122.000000	4.886126 
1121.000000	4.856348 
1120.000000	4.800486 
1119.000000	4.755640 
1118.000000	4.718732 
1117.000000	4.666829 
1116.000000	4.619765 
1115.000000	4.608130 
1114.000000	4.608511 
1113.000000	4.582166 
1112.000000	4.536271 
1111.000000	4.500341 
1110.000000	4.473185 
1109.000000	4.439759 
1108.000000	4.405093 
1107.000000	4.379606 
1106.000000	4.352188 
1105.000000	4.299068 
1104.000000	4.212760 
1103.000000	4.110336 
1102.000000	4.014253 
1101.000000	3.928065 
1100.000000	3.846216 
1099.000000	3.778600 
1098.000000	3.737783 
1097.000000	3.706264 
1096.000000	3.661894 
1095.000000	3.626751 
1094.000000	3.637599 
1093.000000	3.680562 
1092.000000	3.720283 
1091.000000	3.768825 
1090.000000	3.856515 
1089.000000	3.962182 
1088.000000	4.051017 
1087.000000	4.136681 
1086.000000	4.237127 
1085.000000	4.317998 
1084.000000	4.352760 
1083.000000	4.375720 
1082.000000	4.411029 
1081.000000	4.418230 
1080.000000	4.368877 
1079.000000	4.295635 
1078.000000	4.212927 
1077.000000	4.082369 
1076.000000	3.898572 
1075.000000	3.713440 
1074.000000	3.544378 
1073.000000	3.359508 
1072.000000	3.171277 
1071.000000	3.037333 
1070.000000	2.958822 
1069.000000	2.882361 
1068.000000	2.804541 
1067.000000	2.774405 
1066.000000	2.798366 
1065.000000	2.833771 
1064.000000	2.864336 
1063.000000	2.900791 
1062.000000	2.930974 
1061.000000	2.937364 
1060.000000	2.942037 
1059.000000	2.973508 
1058.000000	3.020477 
1057.000000	3.052949 
1056.000000	3.068232 
1055.000000	3.077936 
1054.000000	3.081798 
1053.000000	3.074979 
1052.000000	3.065705 
1051.000000	3.066134 
1050.000000	3.073048 
1049.000000	3.067779 
1048.000000	3.037810 
1047.000000	2.995705 
1046.000000	2.963280 
1045.000000	2.941918 
1044.000000	2.919149 
1043.000000	2.900671 
1042.000000	2.897977 
1041.000000	2.891778 
1040.000000	2.854895 
1039.000000	2.801871 
1038.000000	2.762722 
1037.000000	2.726078 
1036.000000	2.670264 
1035.000000	2.620363 
1034.000000	2.604365 
1033.000000	2.593517 
1032.000000	2.558517 
1031.000000	2.529358 
1030.000000	2.529001 
1029.000000	2.517771 
1028.000000	2.474713 
1027.000000	2.449059 
1026.000000	2.463507 
1025.000000	2.460694 
1024.000000	2.410531 
1023.000000	2.364540 
1022.000000	2.351355 
1021.000000	2.327561 
1020.000000	2.273797 
1019.000000	2.228140 
1018.000000	2.195620 
1017.000000	2.135300 
1016.000000	2.052688 
1015.000000	1.999497 
1014.000000	1.977705 
1013.000000	1.942253 
1012.000000	1.892399 
1011.000000	1.865983 
1010.000000	1.861596 
1009.000000	1.850128 
1008.000000	1.838302 
1007.000000	1.846265 
1006.000000	1.854705 
1005.000000	1.837205 
1004.000000	1.812458 
1003.000000	1.813149 
1002.000000	1.831340 
1001.000000	1.834821 
1000.000000	1.816511 
999.000000	 1.797151 
998.000000	 1.790165 
997.000000	 1.780414 
996.000000	 1.743245 
995.000000	 1.678967 
994.000000	 1.614356 
993.000000	 1.566624 
992.000000	 1.527142 
991.000000	 1.484322 
990.000000	 1.434969 
989.000000	 1.371169 
988.000000	 1.294517 
987.000000	 1.238656 
986.000000	 1.230716 
985.000000	 1.240539 
984.000000	 1.223540 
983.000000	 1.191973 
982.000000	 1.180696 
981.000000	 1.175856 
980.000000	 1.149725 
979.000000	 1.124691 
978.000000	 1.123189 
977.000000	 1.111698 
976.000000	 1.067852 
975.000000	 1.040315 
974.000000	 1.064896 
973.000000	 1.100301 
972.000000	 1.111078 
971.000000	 1.127624 
970.000000	 1.158833 
969.000000	 1.156926 
968.000000	 1.117205 
967.000000	 1.107025 
966.000000	 1.147508 
965.000000	 1.185584 
964.000000	 1.203274 
963.000000	 1.241731 
962.000000	 1.299953 
961.000000	 1.333761 
960.000000	 1.357436 
959.000000	 1.434135 
958.000000	 1.569819 
957.000000	 1.724028 
956.000000	 1.903200 
955.000000	 2.143812 
954.000000	 2.425932 
953.000000	 2.693700 
952.000000	 2.930426 
951.000000	 3.142976 
950.000000	 3.307485 
949.000000	 3.392028 
948.000000	 3.405189 
947.000000	 3.382062 
946.000000	 3.343939 
945.000000	 3.298878 
944.000000	 3.256988 
943.000000	 3.226304 
942.000000	 3.200483 
941.000000	 3.165245 
940.000000	 3.117609 
939.000000	 3.077745 
938.000000	 3.063201 
937.000000	 3.057742 
936.000000	 3.028964 
935.000000	 2.977514 
934.000000	 2.929258 
933.000000	 2.886271 
932.000000	 2.833151 
931.000000	 2.783751 
930.000000	 2.759408 
929.000000	 2.738809 
928.000000	 2.696704 
927.000000	 2.662134 
926.000000	 2.661108 
925.000000	 2.652525 
924.000000	 2.603769 
923.000000	 2.561521 
922.000000	 2.557563 
921.000000	 2.534484 
920.000000	 2.455019 
919.000000	 2.382540 
918.000000	 2.361321 
917.000000	 2.335762 
916.000000	 2.272534 
915.000000	 2.233219 
914.000000	 2.250123 
913.000000	 2.263879 
912.000000	 2.243685 
911.000000	 2.235531 
910.000000	 2.252984 
909.000000	 2.249050 
908.000000	 2.219438 
907.000000	 2.209448 
906.000000	 2.211952 
905.000000	 2.175140 
904.000000	 2.106237 
903.000000	 2.058339 
902.000000	 2.031946 
901.000000	 1.986145 
900.000000	 1.921224 
899.000000	 1.862144 
898.000000	 1.795864 
897.000000	 1.702046 
896.000000	 1.610255 
895.000000	 1.562905 
894.000000	 1.552462 
893.000000	 1.539063 
892.000000	 1.507258 
891.000000	 1.471686 
890.000000	 1.447916 
889.000000	 1.435208 
888.000000	 1.426982 
887.000000	 1.422667 
886.000000	 1.424288 
885.000000	 1.420259 
884.000000	 1.401281 
883.000000	 1.390457 
882.000000	 1.420974 
881.000000	 1.482439 
880.000000	 1.539373 
879.000000	 1.596713 
878.000000	 1.682782 
877.000000	 1.782107 
876.000000	 1.863718 
875.000000	 1.953482 
874.000000	 2.087759 
873.000000	 2.231955 
872.000000	 2.340555 
871.000000	 2.445530 
870.000000	 2.585697 
869.000000	 2.717876 
868.000000	 2.800321 
867.000000	 2.876901 
866.000000	 2.981948 
865.000000	 3.060197 
864.000000	 3.076505 
863.000000	 3.090286 
862.000000	 3.138780 
861.000000	 3.165602 
860.000000	 3.140711 
859.000000	 3.118538 
858.000000	 3.123211 
857.000000	 3.106617 
856.000000	 3.060173 
855.000000	 3.035497 
854.000000	 3.034186 
853.000000	 3.006148 
852.000000	 2.961158 
851.000000	 2.955794 
850.000000	 2.976250 
849.000000	 2.958440 
848.000000	 2.903556 
847.000000	 2.863264 
846.000000	 2.836036 
845.000000	 2.783203 
844.000000	 2.712368 
843.000000	 2.659726 
842.000000	 2.619886 
841.000000	 2.562022 
840.000000	 2.482724 
839.000000	 2.397131 
838.000000	 2.304887 
837.000000	 2.198338 
836.000000	 2.085757 
835.000000	 1.985812 
834.000000	 1.903605 
833.000000	 1.821994 
832.000000	 1.726102 
831.000000	 1.633834 
830.000000	 1.573014 
829.000000	 1.530647 
828.000000	 1.472282 
827.000000	 1.407504 
826.000000	 1.371645 
825.000000	 1.350426 
824.000000	 1.302766 
823.000000	 1.244950 
822.000000	 1.218295 
821.000000	 1.198363 
820.000000	 1.140117 
819.000000	 1.077961 
818.000000	 1.066446 
817.000000	 1.075482 
816.000000	 1.052427 
815.000000	 1.024746 
814.000000	 1.029849 
813.000000	 1.030635 
812.000000	 0.999569 
811.000000	 0.989675 
810.000000	 1.024866 
809.000000	 1.037454 
808.000000	 0.997281 
807.000000	 0.975108 
806.000000	 1.002883 
805.000000	 1.015281 
804.000000	 0.987362 
803.000000	 0.982761 
802.000000	 1.019597 
801.000000	 1.037549 
800.000000	 1.026129 
799.000000	 1.041936 
798.000000	 1.086044 
797.000000	 1.099872 
796.000000	 1.083540 
795.000000	 1.091790 
794.000000	 1.126408 
793.000000	 1.146173 
792.000000	 1.156640 
791.000000	 1.188874 
790.000000	 1.223850 
789.000000	 1.223468 
788.000000	 1.202702 
787.000000	 1.202273 
786.000000	 1.223540 
785.000000	 1.241707 
784.000000	 1.252698 
783.000000	 1.270747 
782.000000	 1.297116 
781.000000	 1.316738 
780.000000	 1.320195 
779.000000	 1.318478 
778.000000	 1.328516 
777.000000	 1.344895 
776.000000	 1.348090 
775.000000	 1.340556 
774.000000	 1.339221 
773.000000	 1.333093 
772.000000	 1.301836 
771.000000	 1.271343 
770.000000	 1.280593 
769.000000	 1.305603 
768.000000	 1.302361 
767.000000	 1.296448 
766.000000	 1.329064 
765.000000	 1.360630 
764.000000	 1.344370 
763.000000	 1.331043 
762.000000	 1.374459 
761.000000	 1.415681 
760.000000	 1.391243 
759.000000	 1.356053 
758.000000	 1.374244 
757.000000	 1.399421 
756.000000	 1.380681 
755.000000	 1.362276 
754.000000	 1.375627 
753.000000	 1.366901 
752.000000	 1.319217 
751.000000	 1.302194 
750.000000	 1.333808 
749.000000	 1.339817 
748.000000	 1.297140 
747.000000	 1.268267 
746.000000	 1.266980 
745.000000	 1.238870 
744.000000	 1.185131 
743.000000	 1.162123 
742.000000	 1.161694 
741.000000	 1.128983 
740.000000	 1.080822 
739.000000	 1.074981 
738.000000	 1.094293 
737.000000	 1.081800 
736.000000	 1.049828 
735.000000	 1.046872 
734.000000	 1.063537 
733.000000	 1.061844 
732.000000	 1.050949 
731.000000	 1.062154 
730.000000	 1.090812 
729.000000	 1.112556 
728.000000	 1.127314 
727.000000	 1.150250 
726.000000	 1.181530 
725.000000	 1.205277 
724.000000	 1.214671 
723.000000	 1.227092 
722.000000	 1.259183 
721.000000	 1.291632 
720.000000	 1.295423 
719.000000	 1.288294 
718.000000	 1.307034 
717.000000	 1.332855 
716.000000	 1.324081 
715.000000	 1.307058 
714.000000	 1.334357 
713.000000	 1.378154 
712.000000	 1.383948 
711.000000	 1.383900 
710.000000	 1.426148 
709.000000	 1.458477 
708.000000	 1.424789 
707.000000	 1.386547 
706.000000	 1.405501 
705.000000	 1.417613 
704.000000	 1.365590 
703.000000	 1.321363 
702.000000	 1.341629 
701.000000	 1.350450 
700.000000	 1.291036 
699.000000	 1.233100 
698.000000	 1.223111 
697.000000	 1.200222 
696.000000	 1.144790 
695.000000	 1.128506 
694.000000	 1.158428 
693.000000	 1.152420 
692.000000	 1.105999 
691.000000	 1.104402 
690.000000	 1.154088 
689.000000	 1.174330 
688.000000	 1.156592 
687.000000	 1.167273 
686.000000	 1.206541 
685.000000	 1.215052 
684.000000	 1.195812 
683.000000	 1.196265 
682.000000	 1.208615 
681.000000	 1.198434 
680.000000	 1.186919 
679.000000	 1.209974 
678.000000	 1.245784 
677.000000	 1.254177 
676.000000	 1.243805 
675.000000	 1.249074 
674.000000	 1.273941 
673.000000	 1.294207 
672.000000	 1.297235 
671.000000	 1.298356 
670.000000	 1.311802 
669.000000	 1.318955 
668.000000	 1.298284 
667.000000	 1.279902 
666.000000	 1.308870 
665.000000	 1.357483 
664.000000	 1.362848 
663.000000	 1.342654 
662.000000	 1.362681 
661.000000	 1.403141 
660.000000	 1.394343 
659.000000	 1.358008 
658.000000	 1.362586 
657.000000	 1.383161 
656.000000	 1.366925 
655.000000	 1.364541 
654.000000	 1.429629 
653.000000	 1.485538 
652.000000	 1.458954 
651.000000	 1.423788 
650.000000	 1.451539 
649.000000	 1.468133 
648.000000	 1.410627 
647.000000	 1.359701 
646.000000	 1.374769 
645.000000	 1.379513 
644.000000	 1.332020 
643.000000	 1.314663 
642.000000	 1.356744 
641.000000	 1.369881 
640.000000	 1.331782 
639.000000	 1.331377 
638.000000	 1.385164 
637.000000	 1.406478 
636.000000	 1.379561 
635.000000	 1.376748 
634.000000	 1.400756 
633.000000	 1.388525 
632.000000	 1.356482 
631.000000	 1.375675 
630.000000	 1.431965 
629.000000	 1.455712 
628.000000	 1.449561 
627.000000	 1.463580 
626.000000	 1.491713 
625.000000	 1.494002 
624.000000	 1.478672 
623.000000	 1.485967 
622.000000	 1.521158 
621.000000	 1.552081 
620.000000	 1.560735 
619.000000	 1.570391 
618.000000	 1.611995 
617.000000	 1.671743 
616.000000	 1.706480 
615.000000	 1.716041 
614.000000	 1.740336 
613.000000	 1.774930 
612.000000	 1.776957 
611.000000	 1.763486 
610.000000	 1.791644 
609.000000	 1.840829 
608.000000	 1.846241 
607.000000	 1.835417 
606.000000	 1.879429 
605.000000	 1.940321 
604.000000	 1.937007 
603.000000	 1.910638 
602.000000	 1.942014 
601.000000	 1.982355 
600.000000	 1.953458 
599.000000	 1.916170 
598.000000	 1.951670 
597.000000	 1.997828 
596.000000	 1.977133 
595.000000	 1.947307 
594.000000	 1.966023 
593.000000	 1.971697 
592.000000	 1.939058 
591.000000	 1.965475 
590.000000	 2.077722 
589.000000	 2.157258 
588.000000	 2.156877 
587.000000	 2.178287 
586.000000	 2.261042 
585.000000	 2.315926 
584.000000	 2.321124 
583.000000	 2.366018 
582.000000	 2.467370 
581.000000	 2.543139 
580.000000	 2.579212 
579.000000	 2.636861 
578.000000	 2.704882 
577.000000	 2.717900 
576.000000	 2.692961 
575.000000	 2.696061 
574.000000	 2.712607 
573.000000	 2.681255 
572.000000	 2.606916 
571.000000	 2.538394 
570.000000	 2.479076 
569.000000	 2.400660 
568.000000	 2.306151 
567.000000	 2.227473 
566.000000	 2.175307 
565.000000	 2.124929 
564.000000	 2.053761 
563.000000	 1.984286 
562.000000	 1.953577 
561.000000	 1.941752 
560.000000	 1.895022 
559.000000	 1.828002 
558.000000	 1.804828 
557.000000	 1.811981 
556.000000	 1.780009 
555.000000	 1.729846 
554.000000	 1.740384 
553.000000	 1.783061 
552.000000	 1.767730 
551.000000	 1.726150 
550.000000	 1.750874 
549.000000	 1.806139 
548.000000	 1.804804 
547.000000	 1.793217 
546.000000	 1.844811 
545.000000	 1.887536 
544.000000	 1.846313 
543.000000	 1.815700 
542.000000	 1.885223 
541.000000	 1.965761 
540.000000	 1.973485 
539.000000	 1.996350 
538.000000	 2.102279 
537.000000	 2.194142 
536.000000	 2.206802 
535.000000	 2.229452 
534.000000	 2.309203 
533.000000	 2.359461 
532.000000	 2.353382 
531.000000	 2.382421 
530.000000	 2.462220 
529.000000	 2.499985 
528.000000	 2.485108 
527.000000	 2.505254 
526.000000	 2.565789 
525.000000	 2.587461 
524.000000	 2.573633 
523.000000	 2.600550 
522.000000	 2.664542 
521.000000	 2.696990 
520.000000	 2.696347 
519.000000	 2.714419 
518.000000	 2.753829 
517.000000	 2.781033 
516.000000	 2.802300 
515.000000	 2.845931 
514.000000	 2.907299 
513.000000	 2.956509 
512.000000	 2.985072 
511.000000	 3.012704 
510.000000	 3.057360 
509.000000	 3.104591 
508.000000	 3.133869 
507.000000	 3.170466 
506.000000	 3.258013 
505.000000	 3.372597 
504.000000	 3.457403 
503.000000	 3.542828 
502.000000	 3.702640 
501.000000	 3.897953 
500.000000	 4.030323 
499.000000	 4.131412 
498.000000	 4.301548 
497.000000	 4.498791 
496.000000	 4.615378 
495.000000	 4.702019 
494.000000	 4.869866 
493.000000	 5.060911 
492.000000	 5.173707 
491.000000	 5.284976 
490.000000	 5.506896 
489.000000	 5.764508 
488.000000	 5.970788 
487.000000	 6.212544 
486.000000	 6.569242 
485.000000	 6.926393 
484.000000	 7.190322 
483.000000	 7.435250 
482.000000	 7.693099 
481.000000	 7.825922 
480.000000	 7.763838 
479.000000	 7.607388 
478.000000	 7.401752 
477.000000	 7.059645 
476.000000	 6.582236 
475.000000	 6.100797 
474.000000	 5.658197 
473.000000	 5.183577 
472.000000	 4.692649 
471.000000	 4.291772 
470.000000	 3.986310 
469.000000	 3.692412 
468.000000	 3.409767 
467.000000	 3.208732 
466.000000	 3.081321 
465.000000	 2.956724 
464.000000	 2.825927 
463.000000	 2.735710 
462.000000	 2.698779 
461.000000	 2.677392 
460.000000	 2.651548 
459.000000	 2.641510 
458.000000	 2.675318 
457.000000	 2.729749 
456.000000	 2.758264 
455.000000	 2.767705 
454.000000	 2.818393 
453.000000	 2.909970 
452.000000	 2.974581 
451.000000	 3.003549 
450.000000	 3.060913 
449.000000	 3.142213 
448.000000	 3.176379 
447.000000	 3.177523 
446.000000	 3.221368 
445.000000	 3.276014 
444.000000	 3.256273 
443.000000	 3.213763 
442.000000	 3.251814 
441.000000	 3.308534 
440.000000	 3.267884 
439.000000	 3.191709 
438.000000	 3.190755 
437.000000	 3.194022 
436.000000	 3.106284 
435.000000	 3.023529 
434.000000	 3.041625 
433.000000	 3.050327 
432.000000	 2.955937 
431.000000	 2.873229 
430.000000	 2.879905 
429.000000	 2.847743 
428.000000	 2.714848 
427.000000	 2.633643 
426.000000	 2.678680 
425.000000	 2.708482 
424.000000	 2.647471 
423.000000	 2.605557 
422.000000	 2.625465 
421.000000	 2.606940 
420.000000	 2.539277 
419.000000	 2.533626 
418.000000	 2.598309 
417.000000	 2.627754 
416.000000	 2.612328 
415.000000	 2.635407 
414.000000	 2.691841 
413.000000	 2.709174 
412.000000	 2.704429 
411.000000	 2.751588 
410.000000	 2.839016 
409.000000	 2.889919 
408.000000	 2.883958 
407.000000	 2.870583 
406.000000	 2.883195 
405.000000	 2.896380 
404.000000	 2.873182 
403.000000	 2.832531 
402.000000	 2.828264 
401.000000	 2.852630 
400.000000	 2.835988 
399.000000	 2.771544 
398.000000	 2.727508 
397.000000	 2.702474 
396.000000	 2.619028 
395.000000	 2.493238 
394.000000	 2.428531 
393.000000	 2.421092 
392.000000	 2.377724 
391.000000	 2.321052 
390.000000	 2.343392 
389.000000	 2.388525 
388.000000	 2.344393 
387.000000	 2.286863 
386.000000	 2.346253 
385.000000	 2.439093 
384.000000	 2.428150 
383.000000	 2.401423 
382.000000	 2.489328 
381.000000	 2.596712 
380.000000	 2.610659 
379.000000	 2.646565 
378.000000	 2.801537 
377.000000	 2.925848 
376.000000	 2.897787 
375.000000	 2.848792 
374.000000	 2.888512 
373.000000	 2.912139 
372.000000	 2.862477 
371.000000	 2.859115 
370.000000	 2.923893 
369.000000	 2.912425 
368.000000	 2.816414 
367.000000	 2.804374 
366.000000	 2.904272 
365.000000	 2.962827 
364.000000	 2.940630 
363.000000	 2.952241 
362.000000	 3.013563 
361.000000	 3.025722 
360.000000	 2.989816 
359.000000	 3.002667 
358.000000	 3.068876 
357.000000	 3.105282 
356.000000	 3.092503 
355.000000	 3.082418 
354.000000	 3.092908 
353.000000	 3.092122 
352.000000	 3.063178 
351.000000	 3.032970 
350.000000	 3.031611 
349.000000	 3.037858 
348.000000	 3.001999 
347.000000	 2.936482 
346.000000	 2.908349 
345.000000	 2.913880 
344.000000	 2.876925 
343.000000	 2.807140 
342.000000	 2.797317 
341.000000	 2.833223 
340.000000	 2.808618 
339.000000	 2.746582 
338.000000	 2.763915 
337.000000	 2.824473 
336.000000	 2.803802 
335.000000	 2.762007 
334.000000	 2.836561 
333.000000	 2.941107 
332.000000	 2.916812 
331.000000	 2.860355 
330.000000	 2.937817 
329.000000	 3.044438 
328.000000	 3.019237 
327.000000	 2.975535 
326.000000	 3.056192 
325.000000	 3.128290 
324.000000	 3.061199 
323.000000	 3.003764 
322.000000	 3.075098 
321.000000	 3.117227 
320.000000	 3.031468 
319.000000	 2.989912 
318.000000	 3.081941 
317.000000	 3.136253 
316.000000	 3.073954 
315.000000	 3.045892 
314.000000	 3.095626 
313.000000	 3.075122 
312.000000	 2.972340 
311.000000	 2.949571 
310.000000	 3.019785 
309.000000	 3.026485 
308.000000	 2.950906 
307.000000	 2.927803 
306.000000	 2.976036 
305.000000	 2.985620 
304.000000	 2.935671 
303.000000	 2.905225 
302.000000	 2.912092 
301.000000	 2.903532 
300.000000	 2.866840 
299.000000	 2.842402 
298.000000	 2.847242 
297.000000	 2.843785 
296.000000	 2.794408 
295.000000	 2.731776 
294.000000	 2.723813 
293.000000	 2.751278 
292.000000	 2.721214 
291.000000	 2.642393 
290.000000	 2.629876 
289.000000	 2.685713 
288.000000	 2.683854 
287.000000	 2.619910 
286.000000	 2.616786 
285.000000	 2.654123 
284.000000	 2.596902 
283.000000	 2.492737 
282.000000	 2.500963 
281.000000	 2.557134 
280.000000	 2.487874 
279.000000	 2.377700 
278.000000	 2.408289 
277.000000	 2.473139 
276.000000	 2.387785 
275.000000	 2.282357 
274.000000	 2.340960 
273.000000	 2.412462 
272.000000	 2.317404 
271.000000	 2.221798 
270.000000	 2.291560 
269.000000	 2.346777 
268.000000	 2.239847 
267.000000	 2.167034 
266.000000	 2.260613 
265.000000	 2.318382 
264.000000	 2.227711 
263.000000	 2.189946 
262.000000	 2.294325 
261.000000	 2.340078 
260.000000	 2.250361 
259.000000	 2.206730 
258.000000	 2.264881 
257.000000	 2.265644 
256.000000	 2.180314 
255.000000	 2.156972 
254.000000	 2.207517 
253.000000	 2.196478 
252.000000	 2.121281 
251.000000	 2.105140 
250.000000	 2.153563 
249.000000	 2.163553 
248.000000	 2.121472 
247.000000	 2.104616 
246.000000	 2.133631 
245.000000	 2.151513 
244.000000	 2.124309 
243.000000	 2.091503 
242.000000	 2.106547 
241.000000	 2.145719 
240.000000	 2.132725 
239.000000	 2.076458 
238.000000	 2.070474 
237.000000	 2.107477 
236.000000	 2.074837 
235.000000	 1.991987 
234.000000	 2.002978 
233.000000	 2.078795 
232.000000	 2.047872 
231.000000	 1.951837 
230.000000	 1.983404 
229.000000	 2.077794 
228.000000	 2.011346 
227.000000	 1.864266 
226.000000	 1.884174 
225.000000	 1.985001 
224.000000	 1.924037 
223.000000	 1.811957 
222.000000	 1.878142 
221.000000	 1.969480 
220.000000	 1.854491 
219.000000	 1.717185 
218.000000	 1.790499 
217.000000	 1.882672 
216.000000	 1.785206 
215.000000	 1.704740 
214.000000	 1.817345 
213.000000	 1.887226 
212.000000	 1.757049 
211.000000	 1.676011 
210.000000	 1.784348 
209.000000	 1.836585 
208.000000	 1.723480 
207.000000	 1.688909 
206.000000	 1.818156 
205.000000	 1.875185 
204.000000	 1.787400 
203.000000	 1.756072 
202.000000	 1.816058 
201.000000	 1.774191 
200.000000	 1.611471 

