9.1533E+01	0.0000E+00
9.2015E+01	3.8693E+02
9.2497E+01	4.7363E-01
9.2980E+01	2.7334E+00
9.3462E+01	1.8312E+02
9.3944E+01	2.2486E+02
9.4426E+01	1.5745E+02
9.4908E+01	9.1141E+01
9.5390E+01	5.9766E+01
9.5872E+01	8.3403E+01
9.6354E+01	9.2774E+01
9.6836E+01	4.2204E+01
9.7319E+01	2.4507E+01
9.7801E+01	6.4879E+01
9.8283E+01	7.3831E+01
9.8765E+01	6.4515E+01
9.9247E+01	3.3243E+01
9.9729E+01	5.5053E+01
1.0021E+02	1.3159E+02
1.0069E+02	1.4903E+02
1.0118E+02	1.3709E+02
1.0166E+02	1.5535E+02
1.0214E+02	2.5913E+02
1.0262E+02	4.6009E+02
1.0310E+02	6.7701E+02
1.0359E+02	9.2333E+02
1.0407E+02	1.1694E+03
1.0455E+02	1.3936E+03
1.0503E+02	1.5938E+03
1.0551E+02	1.7902E+03
1.0600E+02	2.0056E+03
1.0648E+02	2.2383E+03
1.0696E+02	2.4959E+03
1.0744E+02	2.7788E+03
1.0793E+02	3.0851E+03
1.0841E+02	3.4184E+03
1.0889E+02	3.7718E+03
1.0937E+02	4.1517E+03
1.0985E+02	4.5567E+03
1.1034E+02	4.9799E+03
1.1082E+02	5.4448E+03
1.1130E+02	5.9746E+03
1.1178E+02	6.5648E+03
1.1226E+02	7.1721E+03
1.1275E+02	7.7604E+03
1.1323E+02	8.3753E+03
1.1371E+02	9.0483E+03
1.1419E+02	9.7726E+03
1.1467E+02	1.0584E+04
1.1516E+02	1.1518E+04
1.1564E+02	1.2577E+04
1.1612E+02	1.3790E+04
1.1660E+02	1.5134E+04
1.1709E+02	1.6624E+04
1.1757E+02	1.8280E+04
1.1805E+02	2.0117E+04
1.1853E+02	2.2138E+04
1.1901E+02	2.4344E+04
1.1950E+02	2.6726E+04
1.1998E+02	2.9340E+04
1.2046E+02	3.2262E+04
1.2094E+02	3.5428E+04
1.2142E+02	3.8738E+04
1.2191E+02	4.2140E+04
1.2239E+02	4.5659E+04
1.2287E+02	4.8979E+04
1.2335E+02	5.2070E+04
1.2384E+02	5.5061E+04
1.2432E+02	5.7979E+04
1.2480E+02	6.0841E+04
1.2528E+02	6.3649E+04
1.2576E+02	6.6405E+04
1.2625E+02	6.9088E+04
1.2673E+02	7.1867E+04
1.2721E+02	7.4660E+04
1.2769E+02	7.7582E+04
1.2817E+02	8.0750E+04
1.2866E+02	8.4161E+04
1.2914E+02	8.7867E+04
1.2962E+02	9.1980E+04
1.3010E+02	9.6447E+04
1.3058E+02	1.0119E+05
1.3107E+02	1.0615E+05
1.3155E+02	1.1135E+05
1.3203E+02	1.1688E+05
1.3251E+02	1.2273E+05
1.3300E+02	1.2909E+05
1.3348E+02	1.3591E+05
1.3396E+02	1.4322E+05
1.3444E+02	1.5111E+05
1.3492E+02	1.5965E+05
1.3541E+02	1.6885E+05
1.3589E+02	1.7887E+05
1.3637E+02	1.8959E+05
1.3685E+02	2.0125E+05
1.3733E+02	2.1410E+05
1.3782E+02	2.2828E+05
1.3830E+02	2.4344E+05
1.3878E+02	2.5936E+05
1.3926E+02	2.7718E+05
1.3974E+02	2.9364E+05
1.4023E+02	3.1017E+05
1.4071E+02	3.2477E+05
1.4119E+02	3.3625E+05
1.4167E+02	3.4403E+05
1.4216E+02	3.4753E+05
1.4264E+02	3.4450E+05
1.4312E+02	3.3194E+05
1.4360E+02	3.1557E+05
1.4408E+02	2.9408E+05
1.4457E+02	2.6928E+05
1.4505E+02	2.4340E+05
1.4553E+02	2.1747E+05
1.4601E+02	1.9187E+05
1.4649E+02	1.6896E+05
1.4698E+02	1.4854E+05
1.4746E+02	1.3033E+05
1.4794E+02	1.1447E+05
1.4842E+02	1.0083E+05
1.4891E+02	8.8974E+04
1.4939E+02	7.8709E+04
1.4987E+02	7.0227E+04
1.5035E+02	6.2684E+04
1.5083E+02	5.6250E+04
1.5132E+02	5.0657E+04
1.5180E+02	4.5718E+04
1.5228E+02	4.1428E+04
1.5276E+02	3.7600E+04
1.5324E+02	3.4181E+04
1.5373E+02	3.1119E+04
1.5421E+02	2.8364E+04
1.5469E+02	2.6007E+04
1.5517E+02	2.3959E+04
1.5565E+02	2.2013E+04
1.5614E+02	2.0138E+04
1.5662E+02	1.8460E+04
1.5710E+02	1.7045E+04
1.5758E+02	1.5836E+04
1.5807E+02	1.4709E+04
1.5855E+02	1.3588E+04
1.5903E+02	1.2479E+04
1.5951E+02	1.1479E+04
1.5999E+02	1.0629E+04
1.6048E+02	9.8571E+03
1.6096E+02	9.1569E+03
1.6144E+02	8.5158E+03
1.6192E+02	7.9130E+03
1.6240E+02	7.3292E+03
1.6289E+02	6.7553E+03
1.6337E+02	6.2389E+03
1.6385E+02	5.8006E+03
1.6433E+02	5.3928E+03
1.6481E+02	4.9972E+03
1.6530E+02	4.6103E+03
1.6578E+02	4.2501E+03
1.6626E+02	3.9360E+03
1.6674E+02	3.6900E+03
1.6723E+02	3.4354E+03
1.6771E+02	3.1467E+03
1.6819E+02	2.8662E+03
1.6867E+02	2.6328E+03
1.6915E+02	2.4506E+03
1.6964E+02	2.2879E+03
1.7012E+02	2.0982E+03
1.7060E+02	1.8586E+03
1.7108E+02	1.6486E+03
1.7156E+02	1.4888E+03
1.7205E+02	1.3558E+03
1.7253E+02	1.2160E+03
1.7301E+02	1.0571E+03
1.7349E+02	9.1147E+02
1.7398E+02	8.5112E+02
1.7446E+02	8.9026E+02
1.7494E+02	9.0035E+02
1.7542E+02	8.1499E+02
1.7590E+02	6.7462E+02
1.7639E+02	5.7151E+02
1.7687E+02	5.3733E+02
1.7735E+02	5.3762E+02
1.7783E+02	5.2772E+02
1.7831E+02	5.1057E+02
1.7880E+02	4.8128E+02
1.7928E+02	4.2721E+02
1.7976E+02	3.5159E+02
1.8024E+02	2.9031E+02
1.8072E+02	2.6133E+02
1.8121E+02	2.4471E+02
1.8169E+02	2.2045E+02
1.8217E+02	1.8576E+02
1.8265E+02	1.5941E+02
1.8314E+02	1.6667E+02
1.8362E+02	2.1289E+02
1.8410E+02	2.4400E+02
1.8458E+02	2.3117E+02
1.8506E+02	2.1029E+02
1.8555E+02	1.9495E+02
1.8603E+02	1.8785E+02
1.8651E+02	1.9899E+02
1.8699E+02	2.5565E+02
1.8747E+02	3.9134E+02
1.8796E+02	4.8471E+02
1.8844E+02	4.7527E+02
1.8892E+02	4.5418E+02
1.8940E+02	4.8200E+02
1.8989E+02	5.7617E+02
1.9037E+02	7.2029E+02
1.9085E+02	8.9121E+02
1.9133E+02	1.1019E+03
1.9181E+02	1.3235E+03
1.9230E+02	1.5152E+03
1.9278E+02	1.7317E+03
1.9326E+02	2.0377E+03
1.9374E+02	2.4573E+03
1.9422E+02	2.9432E+03
1.9471E+02	3.3767E+03
1.9519E+02	3.8615E+03
1.9567E+02	4.1485E+03
1.9615E+02	4.2067E+03
1.9663E+02	4.0698E+03
1.9712E+02	3.7382E+03
1.9760E+02	3.2061E+03
1.9808E+02	2.5536E+03
1.9856E+02	2.0064E+03
1.9905E+02	1.5772E+03
1.9953E+02	1.2177E+03
2.0001E+02	9.4196E+02
2.0049E+02	7.3236E+02
2.0097E+02	5.5666E+02
2.0146E+02	3.9904E+02
2.0194E+02	2.8205E+02
2.0242E+02	1.7069E+02
2.0290E+02	1.2249E+02
2.0338E+02	8.8484E+01
2.0387E+02	6.8838E+01
2.0435E+02	6.1534E+01
2.0483E+02	4.9609E+01
2.0531E+02	1.7620E+01
2.0579E+02	2.1669E+01
2.0628E+02	3.2226E+01
2.0676E+02	3.3364E+00
2.0724E+02	3.6835E+01
2.0772E+02	2.9692E+01
2.0821E+02	1.3227E+01
2.0869E+02	4.6663E+01
2.0917E+02	5.0083E+01
2.0965E+02	3.4476E+01
2.1013E+02	1.6070E+01
2.1062E+02	9.5664E+00
2.1110E+02	3.2476E+01
2.1158E+02	4.0938E+01
2.1206E+02	3.3799E+01
2.1254E+02	2.1328E+01
2.1303E+02	8.1536E+00
2.1351E+02	3.3007E+01
2.1399E+02	2.7094E+01
2.1447E+02	1.8809E+01
2.1496E+02	7.4186E+01
2.1544E+02	1.0062E+02
2.1592E+02	9.2266E+01
2.1640E+02	9.3878E+01
2.1688E+02	1.2857E+02
2.1737E+02	1.6899E+02
2.1785E+02	1.9947E+02
2.1833E+02	2.1747E+02
2.1881E+02	2.2971E+02
2.1929E+02	2.4567E+02
2.1978E+02	2.6962E+02
2.2026E+02	2.8282E+02
2.2074E+02	2.7297E+02
2.2122E+02	2.5735E+02
2.2170E+02	2.4644E+02
2.2219E+02	2.4325E+02
2.2267E+02	2.4583E+02
2.2315E+02	2.5248E+02
2.2363E+02	2.6762E+02
2.2412E+02	2.7644E+02
2.2460E+02	2.7570E+02
2.2508E+02	2.7040E+02
2.2556E+02	2.6472E+02
2.2604E+02	2.5962E+02
2.2653E+02	2.5222E+02
2.2701E+02	2.3487E+02
2.2749E+02	1.8917E+02
2.2797E+02	1.6947E+02
2.2845E+02	2.0833E+02
2.2894E+02	2.5144E+02
2.2942E+02	2.4760E+02
2.2990E+02	1.8584E+02
2.3038E+02	1.0335E+02
2.3086E+02	6.6780E+01
2.3135E+02	1.2200E+02
2.3183E+02	1.5120E+02
2.3231E+02	1.4639E+02
2.3279E+02	1.2288E+02
2.3328E+02	8.3066E+01
2.3376E+02	3.0683E+01
2.3424E+02	1.5741E+01
2.3472E+02	2.3441E+01
2.3520E+02	4.4001E+01
2.3569E+02	8.6828E+01
2.3617E+02	9.0046E+01
2.3665E+02	7.7475E+01
2.3713E+02	7.1436E+01
2.3761E+02	7.7563E+01
2.3810E+02	8.4396E+01
2.3858E+02	7.3729E+01
2.3906E+02	3.3875E+01
2.3954E+02	3.1487E+00
2.4003E+02	1.5927E+01
2.4051E+02	2.5970E+01
2.4099E+02	2.5628E+01
2.4147E+02	1.4630E+01
2.4195E+02	3.6873E+00
2.4244E+02	1.0086E+01
2.4292E+02	4.1127E+01
2.4340E+02	5.5941E+01
2.4388E+02	3.6654E+01
2.4436E+02	5.7542E+00
2.4485E+02	1.5929E+01
2.4533E+02	2.4826E+01
2.4581E+02	1.8155E+01
2.4629E+02	1.7212E+01
2.4677E+02	8.3424E+01
2.4726E+02	1.2565E+02
2.4774E+02	1.2048E+02
2.4822E+02	9.3774E+01
2.4870E+02	7.6954E+01
2.4919E+02	7.5593E+01
2.4967E+02	7.5689E+01
2.5015E+02	5.6061E+01
2.5063E+02	2.0941E+01
2.5111E+02	5.3955E+00
2.5160E+02	3.1878E+01
2.5208E+02	7.5318E+01
2.5256E+02	1.0502E+02
2.5304E+02	1.1799E+02
2.5352E+02	1.1905E+02
2.5401E+02	1.0168E+02
2.5449E+02	7.3946E+01
2.5497E+02	5.9421E+01
2.5545E+02	7.9426E+01
2.5594E+02	1.0981E+02
2.5642E+02	1.1200E+02
2.5690E+02	7.8398E+01
2.5738E+02	4.6564E+01
2.5786E+02	5.0803E+01
2.5835E+02	7.4674E+01
2.5883E+02	9.1749E+01
2.5931E+02	9.5437E+01
2.5979E+02	8.8492E+01
2.6027E+02	6.7697E+01
2.6076E+02	2.5750E+01
2.6124E+02	1.6211E-01
2.6172E+02	3.6761E+01
2.6220E+02	9.6671E+01
2.6268E+02	1.2987E+02
2.6317E+02	1.1021E+02
2.6365E+02	7.2914E+01
2.6413E+02	7.1522E+01
2.6461E+02	1.1521E+02
2.6510E+02	1.5076E+02
2.6558E+02	1.4744E+02
2.6606E+02	1.2763E+02
2.6654E+02	1.0749E+02
2.6702E+02	8.6645E+01
2.6751E+02	7.4020E+01
2.6799E+02	8.8228E+01
2.6847E+02	1.3687E+02
2.6895E+02	1.7843E+02
2.6943E+02	2.0124E+02
2.6992E+02	2.1033E+02
2.7040E+02	2.0382E+02
2.7088E+02	1.8114E+02
2.7136E+02	1.5673E+02
2.7184E+02	1.4760E+02
2.7233E+02	1.5406E+02
2.7281E+02	1.5830E+02
2.7329E+02	1.7009E+02
2.7377E+02	1.7198E+02
2.7426E+02	1.4354E+02
2.7474E+02	8.1147E+01
2.7522E+02	1.3896E+01
2.7570E+02	2.3460E+01
2.7618E+02	2.4600E+01
2.7667E+02	3.1248E+01
2.7715E+02	6.0181E+01
2.7763E+02	8.7729E+01
2.7811E+02	9.4885E+01
2.7859E+02	8.3569E+01
2.7908E+02	7.5681E+01
2.7956E+02	9.6793E+01
2.8004E+02	1.5149E+02
2.8052E+02	1.9936E+02
2.8101E+02	2.1476E+02
2.8149E+02	2.4420E+02
2.8197E+02	3.2128E+02
2.8245E+02	4.3400E+02
2.8293E+02	5.4066E+02
2.8342E+02	5.9838E+02
2.8390E+02	6.0562E+02
2.8438E+02	6.3684E+02
2.8486E+02	7.1005E+02
2.8534E+02	7.9027E+02
2.8583E+02	8.7508E+02
2.8631E+02	9.6004E+02
2.8679E+02	1.0344E+03
2.8727E+02	1.0865E+03
2.8775E+02	1.1175E+03
2.8824E+02	1.1509E+03
2.8872E+02	1.1829E+03
2.8920E+02	1.2305E+03
2.8968E+02	1.3052E+03
2.9017E+02	1.3921E+03
2.9065E+02	1.4697E+03
2.9113E+02	1.5218E+03
2.9161E+02	1.5573E+03
2.9209E+02	1.6178E+03
2.9258E+02	1.7385E+03
2.9306E+02	1.8434E+03
2.9354E+02	1.8994E+03
2.9402E+02	1.9353E+03
2.9450E+02	1.9873E+03
2.9499E+02	2.0728E+03
2.9547E+02	2.1742E+03
2.9595E+02	2.2476E+03
2.9643E+02	2.2825E+03
2.9691E+02	2.3009E+03
2.9740E+02	2.2859E+03
2.9788E+02	2.2700E+03
2.9836E+02	2.2873E+03
2.9884E+02	2.3473E+03
2.9933E+02	2.4218E+03
2.9981E+02	2.4612E+03
3.0029E+02	2.4444E+03
3.0077E+02	2.4341E+03
3.0125E+02	2.4372E+03
3.0174E+02	2.4473E+03
3.0222E+02	2.4628E+03
3.0270E+02	2.4811E+03
3.0318E+02	2.4994E+03
3.0366E+02	2.5168E+03
3.0415E+02	2.5356E+03
3.0463E+02	2.5325E+03
3.0511E+02	2.4829E+03
3.0559E+02	2.4397E+03
3.0608E+02	2.4339E+03
3.0656E+02	2.4592E+03
3.0704E+02	2.4863E+03
3.0752E+02	2.4855E+03
3.0800E+02	2.4548E+03
3.0849E+02	2.4541E+03
3.0897E+02	2.5377E+03
3.0945E+02	2.5937E+03
3.0993E+02	2.5675E+03
3.1041E+02	2.4895E+03
3.1090E+02	2.4269E+03
3.1138E+02	2.4303E+03
3.1186E+02	2.4876E+03
3.1234E+02	2.4933E+03
3.1282E+02	2.3958E+03
3.1331E+02	2.2994E+03
3.1379E+02	2.2190E+03
3.1427E+02	2.1534E+03
3.1475E+02	2.1018E+03
3.1524E+02	2.0630E+03
3.1572E+02	2.0298E+03
3.1620E+02	1.9853E+03
3.1668E+02	1.9224E+03
3.1716E+02	1.8613E+03
3.1765E+02	1.8217E+03
3.1813E+02	1.7777E+03
3.1861E+02	1.6967E+03
3.1909E+02	1.5699E+03
3.1957E+02	1.4281E+03
3.2006E+02	1.3306E+03
3.2054E+02	1.3072E+03
3.2102E+02	1.2694E+03
3.2150E+02	1.2204E+03
3.2199E+02	1.1537E+03
3.2247E+02	1.0467E+03
3.2295E+02	9.0736E+02
3.2343E+02	7.8024E+02
3.2391E+02	7.2069E+02
3.2440E+02	7.4902E+02
3.2488E+02	7.4164E+02
3.2536E+02	6.6476E+02
3.2584E+02	5.8070E+02
3.2632E+02	5.0818E+02
3.2681E+02	4.4749E+02
3.2729E+02	3.9077E+02
3.2777E+02	3.3127E+02
3.2825E+02	2.7072E+02
3.2873E+02	2.2292E+02
3.2922E+02	1.9615E+02
3.2970E+02	1.7302E+02
3.3018E+02	1.5400E+02
3.3066E+02	1.3419E+02
3.3115E+02	1.0574E+02
3.3163E+02	6.4820E+01
3.3211E+02	1.6212E+01
3.3259E+02	3.1106E+01
3.3307E+02	9.0627E+01
3.3356E+02	1.2693E+02
3.3404E+02	1.2348E+02
3.3452E+02	1.0412E+02
3.3500E+02	9.4200E+01
3.3548E+02	1.0132E+02
3.3597E+02	1.0936E+02
3.3645E+02	8.7283E+01
3.3693E+02	1.6711E+01
3.3741E+02	2.8964E+01
3.3789E+02	3.4082E+00
3.3838E+02	2.6567E+01
3.3886E+02	2.1539E+01
3.3934E+02	1.4031E+02
3.3982E+02	2.7484E+02
3.4031E+02	3.6957E+02
3.4079E+02	4.1928E+02
3.4127E+02	4.7643E+02
3.4175E+02	5.3558E+02
3.4223E+02	6.0831E+02
3.4272E+02	7.0778E+02
3.4320E+02	8.2508E+02
3.4368E+02	9.3910E+02
3.4416E+02	1.0320E+03
3.4464E+02	1.1108E+03
3.4513E+02	1.2117E+03
3.4561E+02	1.3455E+03
3.4609E+02	1.4852E+03
3.4657E+02	1.6156E+03
3.4706E+02	1.7477E+03
3.4754E+02	1.8925E+03
3.4802E+02	2.0550E+03
3.4850E+02	2.2366E+03
3.4898E+02	2.4534E+03
3.4947E+02	2.7236E+03
3.4995E+02	2.9635E+03
3.5043E+02	3.1021E+03
3.5091E+02	3.2328E+03
3.5139E+02	3.4273E+03
3.5188E+02	3.6978E+03
3.5236E+02	3.9993E+03
3.5284E+02	4.2860E+03
3.5332E+02	4.5583E+03
3.5380E+02	4.8383E+03
3.5429E+02	5.1266E+03
3.5477E+02	5.4265E+03
3.5525E+02	5.7351E+03
3.5573E+02	6.0553E+03
3.5622E+02	6.3928E+03
3.5670E+02	6.7494E+03
3.5718E+02	7.1262E+03
3.5766E+02	7.5285E+03
3.5814E+02	7.9538E+03
3.5863E+02	8.4059E+03
3.5911E+02	8.8849E+03
3.5959E+02	9.3874E+03
3.6007E+02	9.9149E+03
3.6055E+02	1.0466E+04
3.6104E+02	1.1043E+04
3.6152E+02	1.1650E+04
3.6200E+02	1.2283E+04
3.6248E+02	1.2970E+04
3.6296E+02	1.3756E+04
3.6345E+02	1.4588E+04
3.6393E+02	1.5391E+04
3.6441E+02	1.6138E+04
3.6489E+02	1.6945E+04
3.6538E+02	1.7911E+04
3.6586E+02	1.9018E+04
3.6634E+02	2.0174E+04
3.6682E+02	2.1373E+04
3.6730E+02	2.2604E+04
3.6779E+02	2.3850E+04
3.6827E+02	2.5110E+04
3.6875E+02	2.6415E+04
3.6923E+02	2.7754E+04
3.6971E+02	2.9160E+04
3.7020E+02	3.0693E+04
3.7068E+02	3.2365E+04
3.7116E+02	3.4140E+04
3.7164E+02	3.5994E+04
3.7213E+02	3.7934E+04
3.7261E+02	3.9932E+04
3.7309E+02	4.1941E+04
3.7357E+02	4.4037E+04
3.7405E+02	4.6258E+04
3.7454E+02	4.8596E+04
3.7502E+02	5.1084E+04
3.7550E+02	5.3727E+04
3.7598E+02	5.6509E+04
3.7646E+02	5.9404E+04
3.7695E+02	6.2390E+04
3.7743E+02	6.5490E+04
3.7791E+02	6.8713E+04
3.7839E+02	7.2044E+04
3.7887E+02	7.5442E+04
3.7936E+02	7.8890E+04
3.7984E+02	8.2444E+04
3.8032E+02	8.6211E+04
3.8080E+02	9.0216E+04
3.8129E+02	9.4302E+04
3.8177E+02	9.8430E+04
3.8225E+02	1.0263E+05
3.8273E+02	1.0694E+05
3.8321E+02	1.1136E+05
3.8370E+02	1.1588E+05
3.8418E+02	1.2052E+05
3.8466E+02	1.2527E+05
3.8514E+02	1.3005E+05
3.8562E+02	1.3488E+05
3.8611E+02	1.3974E+05
3.8659E+02	1.4462E+05
3.8707E+02	1.4950E+05
3.8755E+02	1.5436E+05
3.8804E+02	1.5919E+05
3.8852E+02	1.6399E+05
3.8900E+02	1.6877E+05
3.8948E+02	1.7363E+05
3.8996E+02	1.7825E+05
3.9045E+02	1.8267E+05
3.9093E+02	1.8684E+05
3.9141E+02	1.9087E+05
3.9189E+02	1.9471E+05
3.9237E+02	1.9815E+05
3.9286E+02	2.0101E+05
3.9334E+02	2.0330E+05
3.9382E+02	2.0494E+05
3.9430E+02	2.0600E+05
3.9478E+02	2.0643E+05
3.9527E+02	2.0626E+05
3.9575E+02	2.0544E+05
3.9623E+02	2.0389E+05
3.9671E+02	2.0154E+05
3.9720E+02	1.9843E+05
3.9768E+02	1.9460E+05
3.9816E+02	1.8989E+05
3.9864E+02	1.8461E+05
3.9912E+02	1.7876E+05
3.9961E+02	1.7249E+05
4.0009E+02	1.6585E+05
4.0057E+02	1.5889E+05
4.0105E+02	1.5180E+05
4.0153E+02	1.4472E+05
4.0202E+02	1.3766E+05
4.0250E+02	1.3068E+05
4.0298E+02	1.2372E+05
4.0346E+02	1.1693E+05
4.0394E+02	1.1034E+05
4.0443E+02	1.0398E+05
4.0491E+02	9.7944E+04
4.0539E+02	9.2301E+04
4.0587E+02	8.7000E+04
4.0636E+02	8.1940E+04
4.0684E+02	7.7076E+04
4.0732E+02	7.2463E+04
4.0780E+02	6.8151E+04
4.0828E+02	6.4093E+04
4.0877E+02	6.0310E+04
4.0925E+02	5.6778E+04
4.0973E+02	5.3484E+04
4.1021E+02	5.0399E+04
4.1069E+02	4.7527E+04
4.1118E+02	4.4828E+04
4.1166E+02	4.2296E+04
4.1214E+02	3.9934E+04
4.1262E+02	3.7725E+04
4.1311E+02	3.5666E+04
4.1359E+02	3.3757E+04
4.1407E+02	3.2053E+04
4.1455E+02	3.0476E+04
4.1503E+02	2.8906E+04
4.1552E+02	2.7332E+04
4.1600E+02	2.5831E+04
4.1648E+02	2.4451E+04
4.1696E+02	2.3192E+04
4.1744E+02	2.2024E+04
4.1793E+02	2.0978E+04
4.1841E+02	1.9979E+04
4.1889E+02	1.8972E+04
4.1937E+02	1.7980E+04
4.1985E+02	1.7083E+04
4.2034E+02	1.6320E+04
4.2082E+02	1.5622E+04
4.2130E+02	1.4877E+04
4.2178E+02	1.4064E+04
4.2227E+02	1.3302E+04
4.2275E+02	1.2607E+04
4.2323E+02	1.1966E+04
4.2371E+02	1.1375E+04
4.2419E+02	1.0829E+04
4.2468E+02	1.0313E+04
4.2516E+02	9.8161E+03
4.2564E+02	9.3382E+03
4.2612E+02	8.8564E+03
4.2660E+02	8.3590E+03
4.2709E+02	7.8719E+03
4.2757E+02	7.3856E+03
4.2805E+02	6.9163E+03
4.2853E+02	6.4904E+03
4.2901E+02	6.1162E+03
4.2950E+02	5.7715E+03
4.2998E+02	5.4130E+03
4.3046E+02	5.0180E+03
4.3094E+02	4.6555E+03
4.3143E+02	4.3207E+03
4.3191E+02	4.0150E+03
4.3239E+02	3.7444E+03
4.3287E+02	3.5033E+03
4.3335E+02	3.2766E+03
4.3384E+02	3.0532E+03
4.3432E+02	2.8349E+03
4.3480E+02	2.6307E+03
4.3528E+02	2.4501E+03
4.3576E+02	2.2711E+03
4.3625E+02	2.0813E+03
4.3673E+02	1.8937E+03
4.3721E+02	1.7183E+03
4.3769E+02	1.5579E+03
4.3818E+02	1.4233E+03
4.3866E+02	1.3366E+03
4.3914E+02	1.3021E+03
4.3962E+02	1.2591E+03
4.4010E+02	1.2047E+03
4.4059E+02	1.1327E+03
4.4107E+02	1.0320E+03
4.4155E+02	9.0970E+02
4.4203E+02	7.9274E+02
4.4251E+02	6.9388E+02
4.4300E+02	6.0877E+02
4.4348E+02	5.3081E+02
4.4396E+02	4.6103E+02
4.4444E+02	3.9011E+02
4.4492E+02	3.1052E+02
4.4541E+02	2.2888E+02
4.4589E+02	1.5381E+02
4.4637E+02	7.9377E+01
4.4685E+02	2.8266E+01
4.4734E+02	4.1218E+01
4.4782E+02	8.3576E+01
4.4830E+02	7.2767E+01
4.4878E+02	1.4398E+01
4.4926E+02	1.2449E+02
4.4975E+02	2.0184E+02
4.5023E+02	2.4407E+02
4.5071E+02	2.8581E+02
4.5119E+02	3.2246E+02
4.5167E+02	3.6426E+02
4.5216E+02	4.3387E+02
4.5264E+02	5.1610E+02
4.5312E+02	5.5923E+02
4.5360E+02	5.3131E+02
4.5409E+02	4.6490E+02
4.5457E+02	4.5079E+02
4.5505E+02	5.6376E+02
4.5553E+02	6.2754E+02
4.5601E+02	6.0455E+02
4.5650E+02	5.5565E+02
4.5698E+02	5.2761E+02
4.5746E+02	5.2704E+02
4.5794E+02	5.3609E+02
4.5842E+02	5.4032E+02
4.5891E+02	5.3977E+02
4.5939E+02	5.2081E+02
4.5987E+02	4.5842E+02
4.6035E+02	4.0491E+02
4.6083E+02	3.7589E+02
4.6132E+02	3.6044E+02
4.6180E+02	3.4886E+02
4.6228E+02	3.3780E+02
4.6276E+02	3.1639E+02
4.6325E+02	2.7200E+02
4.6373E+02	2.0720E+02
4.6421E+02	1.0210E+02
4.6469E+02	9.1592E+01
4.6517E+02	2.8355E+02
4.6566E+02	4.1992E+02
4.6614E+02	5.0816E+02
4.6662E+02	5.8475E+02
4.6710E+02	6.5225E+02
4.6758E+02	7.2860E+02
4.6807E+02	8.5634E+02
4.6855E+02	1.0423E+03
4.6903E+02	1.2339E+03
4.6951E+02	1.4070E+03
4.6999E+02	1.5732E+03
4.7048E+02	1.7494E+03
4.7096E+02	1.9406E+03
4.7144E+02	2.1262E+03
4.7192E+02	2.2886E+03
4.7241E+02	2.4407E+03
4.7289E+02	2.6040E+03
4.7337E+02	2.7827E+03
4.7385E+02	2.9676E+03
4.7433E+02	3.1419E+03
4.7482E+02	3.3085E+03
4.7530E+02	3.5325E+03
4.7578E+02	3.8680E+03
4.7626E+02	4.2016E+03
4.7674E+02	4.4659E+03
4.7723E+02	4.6961E+03
4.7771E+02	4.9655E+03
4.7819E+02	5.3061E+03
4.7867E+02	5.6732E+03
4.7916E+02	5.9798E+03
4.7964E+02	6.1657E+03
4.8012E+02	6.4375E+03
4.8060E+02	6.8197E+03
4.8108E+02	7.2542E+03
4.8157E+02	7.7370E+03
4.8205E+02	8.2446E+03
4.8253E+02	8.7275E+03
4.8301E+02	9.1451E+03
4.8349E+02	9.5272E+03
4.8398E+02	9.9749E+03
4.8446E+02	1.0516E+04
4.8494E+02	1.1068E+04
4.8542E+02	1.1577E+04
4.8590E+02	1.2119E+04
4.8639E+02	1.2761E+04
4.8687E+02	1.3509E+04
4.8735E+02	1.4288E+04
4.8783E+02	1.5013E+04
4.8832E+02	1.5706E+04
4.8880E+02	1.6512E+04
4.8928E+02	1.7464E+04
4.8976E+02	1.8451E+04
4.9024E+02	1.9381E+04
4.9073E+02	2.0308E+04
4.9121E+02	2.1340E+04
4.9169E+02	2.2498E+04
4.9217E+02	2.3746E+04
4.9265E+02	2.5057E+04
4.9314E+02	2.6435E+04
4.9362E+02	2.7887E+04
4.9410E+02	2.9429E+04
4.9458E+02	3.1043E+04
4.9506E+02	3.2714E+04
4.9555E+02	3.4446E+04
4.9603E+02	3.6258E+04
4.9651E+02	3.8163E+04
4.9699E+02	4.0150E+04
4.9748E+02	4.2210E+04
4.9796E+02	4.4350E+04
4.9844E+02	4.6590E+04
4.9892E+02	4.8926E+04
4.9940E+02	5.1362E+04
4.9989E+02	5.3867E+04
5.0037E+02	5.6343E+04
5.0085E+02	5.9064E+04
5.0133E+02	6.2100E+04
5.0181E+02	6.5300E+04
5.0230E+02	6.8578E+04
5.0278E+02	7.1947E+04
5.0326E+02	7.5493E+04
5.0374E+02	7.9291E+04
5.0423E+02	8.3316E+04
5.0471E+02	8.7424E+04
5.0519E+02	9.1607E+04
5.0567E+02	9.5951E+04
5.0615E+02	1.0052E+05
5.0664E+02	1.0522E+05
5.0712E+02	1.1003E+05
5.0760E+02	1.1492E+05
5.0808E+02	1.1980E+05
5.0856E+02	1.2467E+05
5.0905E+02	1.2945E+05
5.0953E+02	1.3396E+05
5.1001E+02	1.3825E+05
5.1049E+02	1.4208E+05
5.1097E+02	1.4532E+05
5.1146E+02	1.4795E+05
5.1194E+02	1.4996E+05
5.1242E+02	1.5129E+05
5.1290E+02	1.5205E+05
5.1339E+02	1.5223E+05
5.1387E+02	1.5188E+05
5.1435E+02	1.5106E+05
5.1483E+02	1.4979E+05
5.1531E+02	1.4811E+05
5.1580E+02	1.4607E+05
5.1628E+02	1.4365E+05
5.1676E+02	1.4098E+05
5.1724E+02	1.3799E+05
5.1772E+02	1.3484E+05
5.1821E+02	1.3155E+05
5.1869E+02	1.2813E+05
5.1917E+02	1.2460E+05
5.1965E+02	1.2098E+05
5.2013E+02	1.1727E+05
5.2062E+02	1.1349E+05
5.2110E+02	1.0961E+05
5.2158E+02	1.0580E+05
5.2206E+02	1.0209E+05
5.2255E+02	9.8430E+04
5.2303E+02	9.4758E+04
5.2351E+02	9.1104E+04
5.2399E+02	8.7548E+04
5.2447E+02	8.4099E+04
5.2496E+02	8.0782E+04
5.2544E+02	7.7572E+04
5.2592E+02	7.4486E+04
5.2640E+02	7.1554E+04
5.2688E+02	6.8830E+04
5.2737E+02	6.6231E+04
5.2785E+02	6.3615E+04
5.2833E+02	6.1009E+04
5.2881E+02	5.8542E+04
5.2930E+02	5.6275E+04
5.2978E+02	5.4143E+04
5.3026E+02	5.2099E+04
5.3074E+02	5.0141E+04
5.3122E+02	4.8244E+04
5.3171E+02	4.6395E+04
5.3219E+02	4.4596E+04
5.3267E+02	4.2858E+04
5.3315E+02	4.1163E+04
5.3363E+02	3.9574E+04
5.3412E+02	3.8151E+04
5.3460E+02	3.6788E+04
5.3508E+02	3.5413E+04
5.3556E+02	3.4039E+04
5.3604E+02	3.2716E+04
5.3653E+02	3.1482E+04
5.3701E+02	3.0330E+04
5.3749E+02	2.9260E+04
5.3797E+02	2.8302E+04
5.3846E+02	2.7328E+04
5.3894E+02	2.6292E+04
5.3942E+02	2.5261E+04
5.3990E+02	2.4252E+04
5.4038E+02	2.3284E+04
5.4087E+02	2.2401E+04
5.4135E+02	2.1667E+04
5.4183E+02	2.1010E+04
5.4231E+02	2.0257E+04
5.4279E+02	1.9392E+04
5.4328E+02	1.8574E+04
5.4376E+02	1.7883E+04
5.4424E+02	1.7264E+04
5.4472E+02	1.6630E+04
5.4521E+02	1.5976E+04
5.4569E+02	1.5358E+04
5.4617E+02	1.4825E+04
5.4665E+02	1.4326E+04
5.4713E+02	1.3795E+04
5.4762E+02	1.3237E+04
5.4810E+02	1.2688E+04
5.4858E+02	1.2169E+04
5.4906E+02	1.1679E+04
5.4954E+02	1.1218E+04
5.5003E+02	1.0767E+04
5.5051E+02	1.0375E+04
5.5099E+02	1.0108E+04
5.5147E+02	9.8504E+03
5.5195E+02	9.5031E+03
5.5244E+02	9.0778E+03
5.5292E+02	8.6537E+03
5.5340E+02	8.2905E+03
5.5388E+02	7.9772E+03
5.5437E+02	7.6776E+03
5.5485E+02	7.3952E+03
5.5533E+02	7.1214E+03
5.5581E+02	6.8528E+03
5.5629E+02	6.5930E+03
5.5678E+02	6.3463E+03
5.5726E+02	6.1136E+03
5.5774E+02	5.8919E+03
5.5822E+02	5.6855E+03
5.5870E+02	5.4873E+03
5.5919E+02	5.2745E+03
5.5967E+02	5.0478E+03
5.6015E+02	4.8425E+03
5.6063E+02	4.6864E+03
5.6111E+02	4.5542E+03
5.6160E+02	4.3811E+03
5.6208E+02	4.1469E+03
5.6256E+02	3.9461E+03
5.6304E+02	3.8362E+03
5.6353E+02	3.7367E+03
5.6401E+02	3.5508E+03
5.6449E+02	3.3019E+03
5.6497E+02	3.1083E+03
5.6545E+02	3.0520E+03
5.6594E+02	3.0842E+03
5.6642E+02	3.0364E+03
5.6690E+02	2.8473E+03
5.6738E+02	2.6933E+03
5.6786E+02	2.6280E+03
5.6835E+02	2.5624E+03
5.6883E+02	2.4237E+03
5.6931E+02	2.2293E+03
5.6979E+02	2.0603E+03
5.7028E+02	1.9727E+03
5.7076E+02	1.9343E+03
5.7124E+02	1.8815E+03
5.7172E+02	1.8141E+03
5.7220E+02	1.7369E+03
5.7269E+02	1.6421E+03
5.7317E+02	1.5493E+03
5.7365E+02	1.4926E+03
5.7413E+02	1.4713E+03
5.7461E+02	1.4162E+03
5.7510E+02	1.2826E+03
5.7558E+02	1.1287E+03
5.7606E+02	9.8822E+02
5.7654E+02	8.6979E+02
5.7702E+02	7.9796E+02
5.7751E+02	7.8795E+02
5.7799E+02	8.0792E+02
5.7847E+02	7.9879E+02
5.7895E+02	7.5124E+02
5.7944E+02	6.9666E+02
5.7992E+02	6.2042E+02
5.8040E+02	5.5246E+02
5.8088E+02	5.2919E+02
5.8136E+02	5.2146E+02
5.8185E+02	4.6486E+02
5.8233E+02	3.2409E+02
5.8281E+02	1.6127E+02
5.8329E+02	8.3009E+01
5.8377E+02	9.5938E+01
5.8426E+02	1.0260E+02
5.8474E+02	9.8908E+01
5.8522E+02	7.3520E+01
5.8570E+02	5.3848E+00
5.8619E+02	1.1137E+02
5.8667E+02	1.7286E+02
5.8715E+02	1.4370E+02
5.8763E+02	1.0523E+02
5.8811E+02	1.2273E+02
5.8860E+02	1.7542E+02
5.8908E+02	2.0914E+02
5.8956E+02	2.0938E+02
5.9004E+02	2.1535E+02
5.9052E+02	2.7474E+02
5.9101E+02	3.9141E+02
5.9149E+02	4.6361E+02
5.9197E+02	4.7657E+02
5.9245E+02	4.6909E+02
5.9293E+02	4.2909E+02
5.9342E+02	3.8449E+02
5.9390E+02	3.7533E+02
5.9438E+02	4.0534E+02
5.9486E+02	4.3100E+02
5.9535E+02	4.0560E+02
5.9583E+02	3.3272E+02
5.9631E+02	2.4672E+02
5.9679E+02	1.2350E+02
5.9727E+02	4.1324E+01
5.9776E+02	7.2953E+01
5.9824E+02	1.4418E+02
5.9872E+02	1.8083E+02
5.9920E+02	1.7369E+02
5.9968E+02	1.4677E+02
6.0017E+02	1.0990E+02
6.0065E+02	6.1827E+01
6.0113E+02	2.3301E+00
6.0161E+02	8.1349E+01
6.0209E+02	1.6493E+02
6.0258E+02	2.4828E+02
6.0306E+02	3.2997E+02
6.0354E+02	4.0573E+02
6.0402E+02	4.6786E+02
6.0451E+02	5.3664E+02
6.0499E+02	6.1481E+02
6.0547E+02	6.9725E+02
6.0595E+02	7.7591E+02
6.0643E+02	8.5614E+02
6.0692E+02	9.5435E+02
6.0740E+02	1.0825E+03
6.0788E+02	1.2203E+03
6.0836E+02	1.3176E+03
6.0884E+02	1.3648E+03
6.0933E+02	1.4467E+03
6.0981E+02	1.5731E+03
6.1029E+02	1.7431E+03
6.1077E+02	1.9846E+03
6.1126E+02	2.2687E+03
6.1174E+02	2.5081E+03
6.1222E+02	2.6469E+03
6.1270E+02	2.7765E+03
6.1318E+02	2.9702E+03
6.1367E+02	3.2015E+03
6.1415E+02	3.4006E+03
6.1463E+02	3.5501E+03
6.1511E+02	3.7148E+03
6.1559E+02	3.9633E+03
6.1608E+02	4.2964E+03
6.1656E+02	4.6230E+03
6.1704E+02	4.9379E+03
6.1752E+02	5.2546E+03
6.1800E+02	5.5683E+03
6.1849E+02	5.8906E+03
6.1897E+02	6.2315E+03
6.1945E+02	6.5925E+03
6.1993E+02	6.9691E+03
6.2042E+02	7.3537E+03
6.2090E+02	7.7521E+03
6.2138E+02	8.1801E+03
6.2186E+02	8.6386E+03
6.2234E+02	9.1253E+03
6.2283E+02	9.6560E+03
6.2331E+02	1.0201E+04
6.2379E+02	1.0704E+04
6.2427E+02	1.1163E+04
6.2475E+02	1.1666E+04
6.2524E+02	1.2272E+04
6.2572E+02	1.2905E+04
6.2620E+02	1.3494E+04
6.2668E+02	1.4054E+04
6.2716E+02	1.4635E+04
6.2765E+02	1.5258E+04
6.2813E+02	1.5910E+04
6.2861E+02	1.6575E+04
6.2909E+02	1.7260E+04
6.2958E+02	1.7925E+04
6.3006E+02	1.8561E+04
6.3054E+02	1.9184E+04
6.3102E+02	1.9803E+04
6.3150E+02	2.0411E+04
6.3199E+02	2.1006E+04
6.3247E+02	2.1587E+04
6.3295E+02	2.2145E+04
6.3343E+02	2.2692E+04
6.3391E+02	2.3209E+04
6.3440E+02	2.3622E+04
6.3488E+02	2.3923E+04
6.3536E+02	2.4143E+04
6.3584E+02	2.4303E+04
6.3633E+02	2.4394E+04
6.3681E+02	2.4373E+04
6.3729E+02	2.4227E+04
6.3777E+02	2.4026E+04
6.3825E+02	2.3795E+04
6.3874E+02	2.3498E+04
6.3922E+02	2.3102E+04
6.3970E+02	2.2614E+04
6.4018E+02	2.2060E+04
6.4066E+02	2.1447E+04
6.4115E+02	2.0790E+04
6.4163E+02	2.0103E+04
6.4211E+02	1.9381E+04
6.4259E+02	1.8676E+04
6.4307E+02	1.8027E+04
6.4356E+02	1.7358E+04
6.4404E+02	1.6607E+04
6.4452E+02	1.5806E+04
6.4500E+02	1.5024E+04
6.4549E+02	1.4265E+04
6.4597E+02	1.3547E+04
6.4645E+02	1.2891E+04
6.4693E+02	1.2278E+04
6.4741E+02	1.1678E+04
6.4790E+02	1.1085E+04
6.4838E+02	1.0504E+04
6.4886E+02	9.9402E+03
6.4934E+02	9.3922E+03
6.4982E+02	8.8615E+03
6.5031E+02	8.3278E+03
6.5079E+02	7.8474E+03
6.5127E+02	7.4328E+03
6.5175E+02	7.0560E+03
6.5224E+02	6.7167E+03
6.5272E+02	6.3997E+03
6.5320E+02	6.0720E+03
6.5368E+02	5.7080E+03
6.5416E+02	5.3456E+03
6.5465E+02	5.0476E+03
6.5513E+02	4.8073E+03
6.5561E+02	4.5604E+03
6.5609E+02	4.2846E+03
6.5657E+02	4.0278E+03
6.5706E+02	3.8485E+03
6.5754E+02	3.7345E+03
6.5802E+02	3.5828E+03
6.5850E+02	3.3579E+03
6.5898E+02	3.1417E+03
6.5947E+02	2.9562E+03
6.5995E+02	2.7915E+03
6.6043E+02	2.6388E+03
6.6091E+02	2.4917E+03
6.6140E+02	2.3576E+03
6.6188E+02	2.2411E+03
6.6236E+02	2.1379E+03
6.6284E+02	2.0301E+03
6.6332E+02	1.9136E+03
6.6381E+02	1.8051E+03
6.6429E+02	1.6995E+03
6.6477E+02	1.6090E+03
6.6525E+02	1.5516E+03
6.6573E+02	1.5135E+03
6.6622E+02	1.4537E+03
6.6670E+02	1.3523E+03
6.6718E+02	1.2417E+03
6.6766E+02	1.1248E+03
6.6814E+02	1.0217E+03
6.6863E+02	9.8269E+02
6.6911E+02	1.0107E+03
6.6959E+02	1.0326E+03
6.7007E+02	9.8078E+02
6.7056E+02	8.7004E+02
6.7104E+02	8.0682E+02
6.7152E+02	8.2745E+02
6.7200E+02	8.3621E+02
6.7248E+02	8.2450E+02
6.7297E+02	8.0020E+02
6.7345E+02	7.5489E+02
6.7393E+02	6.9875E+02
6.7441E+02	6.6392E+02
6.7489E+02	6.7579E+02
6.7538E+02	7.0549E+02
6.7586E+02	7.1475E+02
6.7634E+02	7.0692E+02
6.7682E+02	7.0432E+02
6.7731E+02	7.1325E+02
6.7779E+02	7.2633E+02
6.7827E+02	7.3669E+02
6.7875E+02	7.4443E+02
6.7923E+02	7.4788E+02
6.7972E+02	7.3783E+02
6.8020E+02	7.3905E+02
6.8068E+02	7.6667E+02
6.8116E+02	7.9649E+02
6.8164E+02	8.0844E+02
6.8213E+02	8.0100E+02
6.8261E+02	7.8082E+02
6.8309E+02	7.4530E+02
6.8357E+02	7.1497E+02
6.8405E+02	7.3901E+02
6.8454E+02	8.1709E+02
6.8502E+02	8.6431E+02
6.8550E+02	8.5601E+02
6.8598E+02	8.3379E+02
6.8647E+02	8.2978E+02
6.8695E+02	8.4126E+02
6.8743E+02	8.5356E+02
6.8791E+02	8.6306E+02
6.8839E+02	8.7865E+02
6.8888E+02	9.0362E+02
6.8936E+02	9.3602E+02
6.8984E+02	9.8386E+02
6.9032E+02	1.0391E+03
6.9080E+02	1.0702E+03
6.9129E+02	1.0521E+03
6.9177E+02	1.0127E+03
6.9225E+02	1.0272E+03
6.9273E+02	1.1087E+03
6.9321E+02	1.1622E+03
6.9370E+02	1.1662E+03
6.9418E+02	1.1532E+03
6.9466E+02	1.1396E+03
6.9514E+02	1.1265E+03
6.9563E+02	1.1164E+03
6.9611E+02	1.1114E+03
6.9659E+02	1.1060E+03
6.9707E+02	1.0942E+03
6.9755E+02	1.0828E+03
6.9804E+02	1.0924E+03
6.9852E+02	1.1150E+03
6.9900E+02	1.1031E+03
6.9948E+02	1.0236E+03
6.9996E+02	9.1465E+02
7.0045E+02	8.8003E+02
7.0093E+02	9.5214E+02
7.0141E+02	9.7745E+02
7.0189E+02	9.1479E+02
7.0238E+02	8.4357E+02
7.0286E+02	8.0464E+02
7.0334E+02	7.8378E+02
7.0382E+02	7.5477E+02
7.0430E+02	7.0857E+02
7.0479E+02	6.7107E+02
7.0527E+02	6.7253E+02
7.0575E+02	6.8378E+02
7.0623E+02	6.6271E+02
7.0671E+02	6.1081E+02
7.0720E+02	5.5314E+02
7.0768E+02	5.0092E+02
7.0816E+02	4.5748E+02
7.0864E+02	4.2971E+02
7.0912E+02	4.2143E+02
7.0961E+02	4.1551E+02
7.1009E+02	4.1884E+02
7.1057E+02	4.1597E+02
7.1105E+02	4.0249E+02
7.1154E+02	3.7953E+02
7.1202E+02	3.4554E+02
7.1250E+02	2.9928E+02
7.1298E+02	2.5693E+02
7.1346E+02	2.3111E+02
7.1395E+02	2.1308E+02
7.1443E+02	1.8929E+02
7.1491E+02	1.6137E+02
7.1539E+02	1.4370E+02
7.1587E+02	1.4423E+02
7.1636E+02	1.4297E+02
7.1684E+02	1.0469E+02
7.1732E+02	1.8425E+01
7.1780E+02	2.3001E+01
7.1829E+02	3.0944E+01
7.1877E+02	6.8264E+01
7.1925E+02	5.6801E+01
7.1973E+02	2.1761E+01
7.2021E+02	1.8205E+01
7.2070E+02	5.8021E+01
7.2118E+02	8.7864E+01
7.2166E+02	1.0645E+02
7.2214E+02	1.0893E+02
7.2262E+02	7.5362E+01
7.2311E+02	1.7417E+01
7.2359E+02	1.9321E+01
7.2407E+02	2.1315E+01
7.2455E+02	9.7119E-01
7.2503E+02	4.1721E+01
7.2552E+02	9.9827E+01
7.2600E+02	1.3405E+02
7.2648E+02	1.2513E+02
7.2696E+02	1.1970E+02
7.2745E+02	1.2976E+02
7.2793E+02	1.4028E+02
7.2841E+02	1.3687E+02
7.2889E+02	1.2297E+02
7.2937E+02	1.1492E+02
7.2986E+02	1.2464E+02
7.3034E+02	1.3597E+02
7.3082E+02	1.2527E+02
7.3130E+02	1.0289E+02
7.3178E+02	1.0229E+02
7.3227E+02	1.2876E+02
7.3275E+02	1.5187E+02
7.3323E+02	1.4739E+02
7.3371E+02	1.2272E+02
7.3419E+02	1.0779E+02
7.3468E+02	1.1619E+02
7.3516E+02	1.0925E+02
7.3564E+02	6.5161E+01
7.3612E+02	2.7553E+01
7.3661E+02	2.3661E+01
7.3709E+02	4.0936E+01
7.3757E+02	5.6939E+01
7.3805E+02	6.6483E+01
7.3853E+02	6.3216E+01
7.3902E+02	2.7214E+01
7.3950E+02	1.9184E+01
7.3998E+02	2.6672E+01
7.4046E+02	2.5757E+00
7.4094E+02	1.9772E+01
7.4143E+02	7.7417E-01
7.4191E+02	4.0508E+01
7.4239E+02	6.6419E+01
7.4287E+02	7.5580E+01
7.4336E+02	8.3431E+01
7.4384E+02	7.3395E+01
7.4432E+02	8.2721E+01
7.4480E+02	1.4796E+02
7.4528E+02	2.2206E+02
7.4577E+02	2.4515E+02
7.4625E+02	2.1224E+02
7.4673E+02	1.8631E+02
7.4721E+02	2.1573E+02
7.4769E+02	2.5971E+02
7.4818E+02	2.6193E+02
7.4866E+02	2.3842E+02
7.4914E+02	2.4551E+02
7.4962E+02	2.9880E+02
7.5010E+02	3.6004E+02
7.5059E+02	3.8848E+02
7.5107E+02	3.8836E+02
7.5155E+02	4.0818E+02
7.5203E+02	4.6295E+02
7.5252E+02	5.0873E+02
7.5300E+02	5.3017E+02
7.5348E+02	5.4797E+02
7.5396E+02	5.7602E+02
7.5444E+02	6.1140E+02
7.5493E+02	6.4302E+02
7.5541E+02	6.6615E+02
7.5589E+02	6.8752E+02
7.5637E+02	7.0874E+02
7.5685E+02	7.3239E+02
7.5734E+02	7.6294E+02
7.5782E+02	8.0015E+02
7.5830E+02	8.4179E+02
7.5878E+02	8.8705E+02
7.5926E+02	9.3207E+02
7.5975E+02	9.6762E+02
7.6023E+02	9.9141E+02
7.6071E+02	1.0176E+03
7.6119E+02	1.0467E+03
7.6168E+02	1.0782E+03
7.6216E+02	1.1050E+03
7.6264E+02	1.1376E+03
7.6312E+02	1.1939E+03
7.6360E+02	1.2787E+03
7.6409E+02	1.3574E+03
7.6457E+02	1.4215E+03
7.6505E+02	1.4719E+03
7.6553E+02	1.5033E+03
7.6601E+02	1.5225E+03
7.6650E+02	1.5371E+03
7.6698E+02	1.5515E+03
7.6746E+02	1.5805E+03
7.6794E+02	1.6442E+03
7.6843E+02	1.7334E+03
7.6891E+02	1.7956E+03
7.6939E+02	1.8209E+03
7.6987E+02	1.8687E+03
7.7035E+02	1.9582E+03
7.7084E+02	2.0679E+03
7.7132E+02	2.1972E+03
7.7180E+02	2.3347E+03
7.7228E+02	2.4196E+03
7.7276E+02	2.3867E+03
7.7325E+02	2.3848E+03
7.7373E+02	2.4827E+03
7.7421E+02	2.6066E+03
7.7469E+02	2.6815E+03
7.7517E+02	2.7206E+03
7.7566E+02	2.7937E+03
7.7614E+02	2.9463E+03
7.7662E+02	3.1049E+03
7.7710E+02	3.1545E+03
7.7759E+02	3.1165E+03
7.7807E+02	3.1143E+03
7.7855E+02	3.1574E+03
7.7903E+02	3.2312E+03
7.7951E+02	3.3435E+03
7.8000E+02	3.4620E+03
7.8048E+02	3.5258E+03
7.8096E+02	3.5149E+03
7.8144E+02	3.5366E+03
7.8192E+02	3.6026E+03
7.8241E+02	3.6788E+03
7.8289E+02	3.7549E+03
7.8337E+02	3.8325E+03
7.8385E+02	3.9254E+03
7.8434E+02	4.0319E+03
7.8482E+02	4.1224E+03
7.8530E+02	4.1779E+03
7.8578E+02	4.2075E+03
7.8626E+02	4.2194E+03
7.8675E+02	4.2171E+03
7.8723E+02	4.2031E+03
7.8771E+02	4.1775E+03
7.8819E+02	4.1708E+03
7.8867E+02	4.2128E+03
7.8916E+02	4.2865E+03
7.8964E+02	4.3200E+03
7.9012E+02	4.2736E+03
7.9060E+02	4.2775E+03
7.9108E+02	4.4172E+03
7.9157E+02	4.5249E+03
7.9205E+02	4.4983E+03
7.9253E+02	4.4014E+03
7.9301E+02	4.3401E+03
7.9350E+02	4.3388E+03
7.9398E+02	4.3387E+03
7.9446E+02	4.3098E+03
7.9494E+02	4.2674E+03
7.9542E+02	4.2191E+03
7.9591E+02	4.1716E+03
7.9639E+02	4.1412E+03
7.9687E+02	4.1329E+03
7.9735E+02	4.1281E+03
7.9783E+02	4.1045E+03
7.9832E+02	4.0627E+03
7.9880E+02	4.0141E+03
7.9928E+02	3.9584E+03
7.9976E+02	3.9122E+03
8.0024E+02	3.8814E+03
8.0073E+02	3.8542E+03
8.0121E+02	3.8237E+03
8.0169E+02	3.7882E+03
8.0217E+02	3.7411E+03
8.0266E+02	3.6742E+03
8.0314E+02	3.6099E+03
8.0362E+02	3.5504E+03
8.0410E+02	3.4954E+03
8.0458E+02	3.4493E+03
8.0507E+02	3.4079E+03
8.0555E+02	3.3643E+03
8.0603E+02	3.3153E+03
8.0651E+02	3.2595E+03
8.0699E+02	3.1904E+03
8.0748E+02	3.1160E+03
8.0796E+02	3.0549E+03
8.0844E+02	3.0067E+03
8.0892E+02	2.9577E+03
8.0941E+02	2.9020E+03
8.0989E+02	2.8526E+03
8.1037E+02	2.8279E+03
8.1085E+02	2.8275E+03
8.1133E+02	2.8071E+03
8.1182E+02	2.7539E+03
8.1230E+02	2.7017E+03
8.1278E+02	2.6556E+03
8.1326E+02	2.6116E+03
8.1374E+02	2.5676E+03
8.1423E+02	2.5238E+03
8.1471E+02	2.4809E+03
8.1519E+02	2.4391E+03
8.1567E+02	2.3988E+03
8.1615E+02	2.3596E+03
8.1664E+02	2.3220E+03
8.1712E+02	2.2906E+03
8.1760E+02	2.2615E+03
8.1808E+02	2.2228E+03
8.1857E+02	2.1693E+03
8.1905E+02	2.1108E+03
8.1953E+02	2.0560E+03
8.2001E+02	2.0063E+03
8.2049E+02	1.9811E+03
8.2098E+02	1.9882E+03
8.2146E+02	1.9693E+03
8.2194E+02	1.8920E+03
8.2242E+02	1.8076E+03
8.2290E+02	1.7769E+03
8.2339E+02	1.7969E+03
8.2387E+02	1.7868E+03
8.2435E+02	1.7242E+03
8.2483E+02	1.6644E+03
8.2531E+02	1.6206E+03
8.2580E+02	1.5777E+03
8.2628E+02	1.5089E+03
8.2676E+02	1.4341E+03
8.2724E+02	1.4034E+03
8.2773E+02	1.4387E+03
8.2821E+02	1.4883E+03
8.2869E+02	1.5237E+03
8.2917E+02	1.5370E+03
8.2965E+02	1.4963E+03
8.3014E+02	1.4164E+03
8.3062E+02	1.3719E+03
8.3110E+02	1.3915E+03
8.3158E+02	1.4221E+03
8.3206E+02	1.3944E+03
8.3255E+02	1.4049E+03
8.3303E+02	1.4092E+03
8.3351E+02	1.3602E+03
8.3399E+02	1.3880E+03
8.3448E+02	1.3185E+03
8.3496E+02	1.2382E+03
8.3544E+02	1.2384E+03
8.3592E+02	1.2876E+03
8.3640E+02	1.2864E+03
8.3689E+02	1.1938E+03
8.3737E+02	1.1196E+03
8.3785E+02	1.1044E+03
8.3833E+02	1.1038E+03
8.3881E+02	1.0795E+03
8.3930E+02	1.0478E+03
8.3978E+02	1.0512E+03
8.4026E+02	1.0998E+03
8.4074E+02	1.1421E+03
8.4122E+02	1.1270E+03
8.4171E+02	1.0767E+03
8.4219E+02	1.0301E+03
8.4267E+02	9.8670E+02
8.4315E+02	9.4244E+02
8.4364E+02	8.9547E+02
8.4412E+02	8.6587E+02
8.4460E+02	8.7523E+02
8.4508E+02	9.1304E+02
8.4556E+02	9.2923E+02
8.4605E+02	9.1394E+02
8.4653E+02	9.0333E+02
8.4701E+02	9.0059E+02
8.4749E+02	9.0256E+02
8.4797E+02	9.1924E+02
8.4846E+02	9.3287E+02
8.4894E+02	9.0726E+02
8.4942E+02	8.3011E+02
8.4990E+02	7.9067E+02
8.5038E+02	8.5758E+02
8.5087E+02	9.2047E+02
8.5135E+02	9.0134E+02
8.5183E+02	8.4499E+02
8.5231E+02	8.1681E+02
8.5280E+02	8.2358E+02
8.5328E+02	8.2401E+02
8.5376E+02	7.8326E+02
8.5424E+02	7.3145E+02
8.5472E+02	7.2292E+02
8.5521E+02	7.4512E+02
8.5569E+02	7.4417E+02
8.5617E+02	7.1337E+02
8.5665E+02	6.7937E+02
8.5713E+02	6.5768E+02
8.5762E+02	6.4531E+02
8.5810E+02	6.3437E+02
8.5858E+02	6.2289E+02
8.5906E+02	6.1369E+02
8.5955E+02	6.1265E+02
8.6003E+02	6.0732E+02
8.6051E+02	5.8228E+02
8.6099E+02	5.6083E+02
8.6147E+02	5.7032E+02
8.6196E+02	6.0762E+02
8.6244E+02	6.3452E+02
8.6292E+02	6.4293E+02
8.6340E+02	6.3474E+02
8.6388E+02	6.0124E+02
8.6437E+02	5.5949E+02
8.6485E+02	5.1064E+02
8.6533E+02	4.6741E+02
8.6581E+02	4.5891E+02
8.6629E+02	4.9606E+02
8.6678E+02	5.4010E+02
8.6726E+02	5.5889E+02
8.6774E+02	5.5480E+02
8.6822E+02	5.1911E+02
8.6871E+02	4.6100E+02
8.6919E+02	4.3413E+02
8.6967E+02	4.5435E+02
8.7015E+02	4.8305E+02
8.7063E+02	4.8566E+02
8.7112E+02	4.6447E+02
8.7160E+02	4.2641E+02
8.7208E+02	3.6253E+02
8.7256E+02	3.1388E+02
8.7304E+02	2.8944E+02
8.7353E+02	2.7255E+02
8.7401E+02	2.4984E+02
8.7449E+02	2.3081E+02
8.7497E+02	2.3896E+02
8.7546E+02	2.8380E+02
8.7594E+02	3.0629E+02
8.7642E+02	2.8209E+02
8.7690E+02	2.5154E+02
8.7738E+02	2.1486E+02
8.7787E+02	1.8856E+02
8.7835E+02	2.0492E+02
8.7883E+02	2.5261E+02
8.7931E+02	2.7580E+02
8.7979E+02	2.3852E+02
8.8028E+02	1.8936E+02
8.8076E+02	1.7766E+02
8.8124E+02	1.8541E+02
8.8172E+02	1.8229E+02
8.8220E+02	1.6829E+02
8.8269E+02	1.4898E+02
8.8317E+02	1.2646E+02
8.8365E+02	1.1169E+02
8.8413E+02	1.2065E+02
8.8462E+02	1.4888E+02
8.8510E+02	1.6405E+02
8.8558E+02	1.6643E+02
8.8606E+02	1.4990E+02
8.8654E+02	1.0523E+02
8.8703E+02	6.0793E+01
8.8751E+02	4.0604E+01
8.8799E+02	3.9073E+01
8.8847E+02	3.3163E+01
8.8895E+02	1.2563E+01
8.8944E+02	7.7844E+00
8.8992E+02	5.5604E+01
8.9040E+02	7.6605E+01
8.9088E+02	2.4065E+00
8.9136E+02	9.4357E+01
8.9185E+02	1.1850E+02
8.9233E+02	6.2788E+01
8.9281E+02	7.6633E+00
8.9329E+02	2.3537E+01
8.9378E+02	3.7224E+01
8.9426E+02	2.4831E+01
8.9474E+02	5.4067E+00
8.9522E+02	4.7117E+00
8.9570E+02	1.7781E+01
8.9619E+02	2.0724E+01
8.9667E+02	5.6621E+00
8.9715E+02	1.1699E+01
8.9763E+02	1.1505E+01
8.9811E+02	5.3345E-01
8.9860E+02	7.6401E+00
8.9908E+02	9.8792E+00
8.9956E+02	1.3320E+01
9.0004E+02	2.0069E+01
9.0053E+02	2.5216E+01
9.0101E+02	2.4392E+01
9.0149E+02	1.7681E+01
9.0197E+02	4.6401E+00
9.0245E+02	1.8175E+01
9.0294E+02	3.4869E+01
9.0342E+02	4.2161E+01
9.0390E+02	4.7146E+01
9.0438E+02	5.7408E+01
9.0486E+02	6.6383E+01
9.0535E+02	5.7763E+01
9.0583E+02	2.7722E+01
9.0631E+02	9.5259E+00
9.0679E+02	1.5652E+01
9.0727E+02	2.1090E+01
9.0776E+02	2.0437E+01
9.0824E+02	1.3996E+01
9.0872E+02	5.9011E+00
9.0920E+02	3.0621E+01
9.0969E+02	3.4077E+01
9.1017E+02	1.1418E+00
9.1065E+02	2.9280E+01
9.1113E+02	2.5466E+01
9.1161E+02	1.0292E+01
9.1210E+02	9.4199E+00
9.1258E+02	1.8615E+01
9.1306E+02	2.2252E+01
9.1354E+02	1.7249E+01
9.1402E+02	1.8471E+01
9.1451E+02	4.4313E+01
9.1499E+02	7.5924E+01
9.1547E+02	6.8008E+01
9.1595E+02	2.7093E+01
9.1643E+02	7.2317E+00
9.1692E+02	2.9564E+01
9.1740E+02	4.6264E+01
9.1788E+02	6.2664E+01
9.1836E+02	6.6575E+01
9.1885E+02	3.2598E+01
9.1933E+02	4.3334E+01
9.1981E+02	8.1846E+01
9.2029E+02	7.4972E+01
9.2077E+02	4.9802E+01
9.2126E+02	2.4436E+00
9.2174E+02	5.1833E+01
9.2222E+02	6.9015E+01
9.2270E+02	6.2793E+01
9.2318E+02	6.9895E+01
9.2367E+02	1.0493E+02
9.2415E+02	1.2118E+02
9.2463E+02	1.0113E+02
9.2511E+02	7.6811E+01
9.2560E+02	4.6765E+01
9.2608E+02	3.0693E+01
9.2656E+02	6.6608E+01
9.2704E+02	1.4628E+02
9.2752E+02	1.9329E+02
9.2801E+02	1.5314E+02
9.2849E+02	1.0474E+02
9.2897E+02	1.0541E+02
9.2945E+02	1.2168E+02
9.2993E+02	1.1323E+02
9.3042E+02	8.4998E+01
9.3090E+02	6.2084E+01
9.3138E+02	5.3584E+01
9.3186E+02	4.6775E+01
9.3234E+02	2.9901E+01
9.3283E+02	5.9747E+00
9.3331E+02	3.0085E+01
9.3379E+02	6.9623E+01
9.3427E+02	6.6191E+01
9.3476E+02	1.3097E+01
9.3524E+02	4.1520E+01
9.3572E+02	6.5089E+01
9.3620E+02	6.9488E+01
9.3668E+02	8.0027E+01
9.3717E+02	9.7605E+01
9.3765E+02	1.0754E+02
9.3813E+02	1.1068E+02
9.3861E+02	9.7082E+01
9.3909E+02	5.3082E+01
9.3958E+02	1.4070E+01
9.4006E+02	2.0600E+01
9.4054E+02	6.4389E+01
9.4102E+02	8.7152E+01
9.4151E+02	8.0876E+01
9.4199E+02	6.8578E+01
9.4247E+02	3.4172E+01
9.4295E+02	1.2615E+01
9.4343E+02	2.5501E+01
9.4392E+02	5.4815E+01
9.4440E+02	7.8328E+01
9.4488E+02	9.4742E+01
9.4536E+02	1.1359E+02
9.4584E+02	1.4930E+02
9.4633E+02	1.7159E+02
9.4681E+02	1.6037E+02
9.4729E+02	1.3898E+02
9.4777E+02	1.2900E+02
9.4825E+02	1.2467E+02
9.4874E+02	1.0501E+02
9.4922E+02	6.0868E+01
9.4970E+02	2.5053E+01
9.5018E+02	3.6197E+01
9.5067E+02	5.3681E+01
9.5115E+02	2.5676E+01
9.5163E+02	2.2870E+01
9.5211E+02	5.2715E+01
9.5259E+02	5.4359E+01
9.5308E+02	1.9342E+01
9.5356E+02	6.1422E+01
9.5404E+02	1.4348E+02
9.5452E+02	1.5829E+02
9.5500E+02	1.2745E+02
9.5549E+02	1.1398E+02
9.5597E+02	1.1817E+02
9.5645E+02	1.2175E+02
9.5693E+02	1.1931E+02
9.5741E+02	1.1605E+02
9.5790E+02	1.1730E+02
9.5838E+02	1.1912E+02
9.5886E+02	1.0603E+02
9.5934E+02	7.6236E+01
9.5983E+02	5.8655E+01
9.6031E+02	5.6382E+01
9.6079E+02	5.8503E+01
9.6127E+02	5.8017E+01
9.6175E+02	6.6500E+01
9.6224E+02	1.0569E+02
9.6272E+02	1.7270E+02
9.6320E+02	1.9339E+02
9.6368E+02	1.3421E+02
9.6416E+02	1.0028E+02
9.6465E+02	1.1731E+02
9.6513E+02	1.3981E+02
9.6561E+02	1.3787E+02
9.6609E+02	1.2962E+02
9.6658E+02	1.5007E+02
9.6706E+02	2.0504E+02
9.6754E+02	2.2549E+02
9.6802E+02	1.6876E+02
9.6850E+02	1.2292E+02
9.6899E+02	1.2575E+02
9.6947E+02	1.3858E+02
9.6995E+02	1.2877E+02
9.7043E+02	1.0415E+02
9.7091E+02	8.6308E+01
9.7140E+02	8.0135E+01
9.7188E+02	8.6007E+01
9.7236E+02	1.1089E+02
9.7284E+02	1.3797E+02
9.7332E+02	1.7294E+02
9.7381E+02	1.9793E+02
9.7429E+02	1.7415E+02
9.7477E+02	1.1298E+02
9.7525E+02	7.2605E+01
9.7574E+02	8.1861E+01
9.7622E+02	1.0401E+02
9.7670E+02	1.0805E+02
9.7718E+02	1.0021E+02
9.7766E+02	9.2599E+01
9.7815E+02	8.7407E+01
9.7863E+02	8.2018E+01
9.7911E+02	7.7516E+01
9.7959E+02	7.5832E+01
9.8007E+02	7.9146E+01
9.8056E+02	8.7268E+01
9.8104E+02	1.0599E+02
9.8152E+02	1.2905E+02
9.8200E+02	1.2895E+02
9.8248E+02	1.0667E+02
9.8297E+02	7.8308E+01
9.8345E+02	4.9114E+01
9.8393E+02	4.6467E+01
9.8441E+02	1.0494E+02
9.8490E+02	1.9459E+02
9.8538E+02	2.0950E+02
9.8586E+02	1.4639E+02
9.8634E+02	1.2136E+02
9.8682E+02	1.5118E+02
9.8731E+02	1.6530E+02
9.8779E+02	1.2742E+02
9.8827E+02	7.8993E+01
9.8875E+02	7.2095E+01
9.8923E+02	1.0177E+02
9.8972E+02	1.1586E+02
9.9020E+02	1.0444E+02
9.9068E+02	1.0878E+02
9.9116E+02	1.4645E+02
9.9165E+02	1.6970E+02
9.9213E+02	1.4644E+02
9.9261E+02	1.1128E+02
9.9309E+02	1.1704E+02
9.9357E+02	1.6549E+02
9.9406E+02	1.7693E+02
9.9454E+02	1.0529E+02
9.9502E+02	6.4575E+01
9.9550E+02	9.5529E+01
9.9598E+02	1.2789E+02
9.9647E+02	1.1153E+02
9.9695E+02	7.6785E+01
9.9743E+02	8.2120E+01
9.9791E+02	1.3895E+02
9.9839E+02	1.6624E+02
9.9888E+02	1.1906E+02
9.9936E+02	7.9667E+01
9.9984E+02	7.8470E+01
1.0003E+03	8.8415E+01
1.0008E+03	9.4581E+01
1.0013E+03	9.5951E+01
1.0018E+03	8.9656E+01
1.0023E+03	7.3804E+01
1.0027E+03	5.9523E+01
1.0032E+03	4.3004E+01
1.0037E+03	3.9618E+01
1.0042E+03	7.0005E+01
1.0047E+03	1.0958E+02
1.0051E+03	1.3562E+02
1.0056E+03	1.4627E+02
1.0061E+03	1.4504E+02
1.0066E+03	1.3291E+02
1.0071E+03	1.1300E+02
1.0076E+03	7.1911E+01
1.0080E+03	4.0167E+01
1.0085E+03	5.7498E+01
1.0090E+03	9.5648E+01
1.0095E+03	1.1014E+02
1.0100E+03	1.0033E+02
1.0104E+03	9.0672E+01
1.0109E+03	9.4503E+01
1.0114E+03	1.0094E+02
1.0119E+03	8.6426E+01
1.0124E+03	6.7617E+01
1.0129E+03	7.9309E+01
1.0133E+03	1.0756E+02
1.0138E+03	1.1030E+02
1.0143E+03	8.6021E+01
1.0148E+03	7.2202E+01
1.0153E+03	9.0899E+01
1.0158E+03	1.2075E+02
1.0162E+03	1.4036E+02
1.0167E+03	1.4604E+02
1.0172E+03	1.1421E+02
1.0177E+03	5.5958E+01
1.0182E+03	2.6373E+01
1.0186E+03	3.6565E+01
1.0191E+03	6.4322E+01
1.0196E+03	9.7393E+01
1.0201E+03	1.2303E+02
1.0206E+03	1.1128E+02
1.0211E+03	6.8298E+01
1.0215E+03	3.7407E+01
1.0220E+03	1.8992E+01
1.0225E+03	1.3133E+01
1.0230E+03	1.9940E+01
1.0235E+03	3.7750E+01
1.0239E+03	6.7346E+01
1.0244E+03	1.0007E+02
1.0249E+03	1.1754E+02
1.0254E+03	1.1946E+02
1.0259E+03	1.1166E+02
1.0264E+03	9.1726E+01
1.0268E+03	8.1279E+01
1.0273E+03	8.6756E+01
1.0278E+03	9.9893E+01
1.0283E+03	1.1642E+02
1.0288E+03	1.3229E+02
1.0293E+03	1.3778E+02
1.0297E+03	1.3286E+02
1.0302E+03	1.1832E+02
1.0307E+03	8.5365E+01
1.0312E+03	7.3209E+01
1.0317E+03	1.0318E+02
1.0321E+03	1.3007E+02
1.0326E+03	1.1471E+02
1.0331E+03	7.2054E+01
1.0336E+03	4.4645E+01
1.0341E+03	3.2571E+01
1.0346E+03	3.6590E+01
1.0350E+03	6.6429E+01
1.0355E+03	9.2124E+01
1.0360E+03	1.1429E+02
1.0365E+03	1.2112E+02
1.0370E+03	7.6420E+01
1.0374E+03	6.3261E+00
1.0379E+03	1.5729E-01
1.0384E+03	8.6969E+01
1.0389E+03	1.3223E+02
1.0394E+03	1.1220E+02
1.0399E+03	8.7335E+01
1.0403E+03	6.0785E+01
1.0408E+03	4.5494E+01
1.0413E+03	5.1900E+01
1.0418E+03	7.6133E+01
1.0423E+03	1.1033E+02
1.0428E+03	1.6596E+02
1.0432E+03	1.9063E+02
1.0437E+03	1.5777E+02
1.0442E+03	1.2886E+02
1.0447E+03	1.3106E+02
1.0452E+03	1.2982E+02
1.0456E+03	8.0500E+01
1.0461E+03	1.2003E+01
1.0466E+03	1.5716E+00
1.0471E+03	7.3811E+01
1.0476E+03	1.1912E+02
1.0481E+03	1.0530E+02
1.0485E+03	9.1211E+01
1.0490E+03	9.6978E+01
1.0495E+03	1.0445E+02
1.0500E+03	9.6430E+01
1.0505E+03	8.0315E+01
1.0509E+03	7.4589E+01
1.0514E+03	8.3965E+01
1.0519E+03	8.8309E+01
1.0524E+03	6.8975E+01
1.0529E+03	6.4909E+01
1.0534E+03	1.0999E+02
1.0538E+03	1.5173E+02
1.0543E+03	1.4046E+02
1.0548E+03	9.7217E+01
1.0553E+03	6.8578E+01
1.0558E+03	6.2864E+01
1.0562E+03	5.8058E+01
1.0567E+03	4.2548E+01
1.0572E+03	3.4440E+01
1.0577E+03	4.3916E+01
1.0582E+03	6.0492E+01
1.0587E+03	7.7322E+01
1.0591E+03	9.4657E+01
1.0596E+03	1.2242E+02
1.0601E+03	1.6215E+02
1.0606E+03	1.6702E+02
1.0611E+03	7.8939E+01
1.0616E+03	1.0895E+01
1.0620E+03	2.4635E+01
1.0625E+03	5.9596E+01
1.0630E+03	7.3849E+01
1.0635E+03	7.2773E+01
1.0640E+03	7.0705E+01
1.0644E+03	7.0337E+01
1.0649E+03	6.8927E+01
1.0654E+03	7.0939E+01
1.0659E+03	6.4088E+01
1.0664E+03	2.4283E+01
1.0669E+03	6.3962E+00
1.0673E+03	1.6942E+01
1.0678E+03	6.4778E+01
1.0683E+03	8.5029E+01
1.0688E+03	7.3989E+01
1.0693E+03	7.6823E+01
1.0697E+03	1.3017E+02
1.0702E+03	1.6576E+02
1.0707E+03	1.3241E+02
1.0712E+03	9.1648E+01
1.0717E+03	9.2896E+01
1.0722E+03	1.1461E+02
1.0726E+03	1.2485E+02
1.0731E+03	1.1943E+02
1.0736E+03	1.0627E+02
1.0741E+03	8.4220E+01
1.0746E+03	6.4863E+01
1.0751E+03	5.5441E+01
1.0755E+03	4.8463E+01
1.0760E+03	3.0404E+01
1.0765E+03	1.6993E+01
1.0770E+03	3.4865E+01
1.0775E+03	7.8149E+01
1.0779E+03	1.1083E+02
1.0784E+03	1.1763E+02
1.0789E+03	1.2463E+02
1.0794E+03	1.5961E+02
1.0799E+03	1.8158E+02
1.0804E+03	1.4467E+02
1.0808E+03	9.2993E+01
1.0813E+03	7.9832E+01
1.0818E+03	1.0027E+02
1.0823E+03	1.2226E+02
1.0828E+03	1.3845E+02
1.0832E+03	1.4155E+02
1.0837E+03	1.1931E+02
1.0842E+03	9.4199E+01
1.0847E+03	7.6938E+01
1.0852E+03	6.5233E+01
1.0857E+03	6.0914E+01
1.0861E+03	5.8452E+01
1.0866E+03	4.1637E+01
1.0871E+03	5.3444E+00
1.0876E+03	1.1401E+01
1.0881E+03	2.2970E+01
1.0886E+03	6.1382E+01
1.0890E+03	8.4086E+01
1.0895E+03	9.7752E+01
1.0900E+03	1.1119E+02
1.0905E+03	1.1935E+02
1.0910E+03	1.0597E+02
1.0914E+03	7.0201E+01
1.0919E+03	4.9794E+01
1.0924E+03	9.1958E+01
1.0929E+03	1.0709E+02
1.0934E+03	1.1041E+01
1.0939E+03	7.4764E+01
1.0943E+03	4.8570E+01
1.0948E+03	3.7127E+01
1.0953E+03	1.1252E+02
1.0958E+03	1.6262E+02
1.0963E+03	1.6838E+02
1.0967E+03	9.6956E+01
1.0972E+03	3.2794E+01
1.0977E+03	1.5808E-02
1.0982E+03	1.3183E+01
1.0987E+03	6.9001E+00
1.0992E+03	1.0286E+01
1.0996E+03	3.3918E+01
1.1001E+03	6.0164E+01
1.1006E+03	7.8550E+01
1.1011E+03	8.6567E+01
1.1016E+03	8.8179E+01
1.1021E+03	7.8281E+01
1.1025E+03	6.9491E+01
1.1030E+03	6.6107E+01
1.1035E+03	6.7552E+01
1.1040E+03	7.4794E+01
1.1045E+03	8.5826E+01
1.1049E+03	9.4936E+01
1.1054E+03	9.9664E+01
1.1059E+03	1.1117E+02
1.1064E+03	1.5868E+02
1.1069E+03	1.7398E+02
1.1074E+03	9.0160E+01
1.1078E+03	1.7681E+01
1.1083E+03	6.7469E+01
1.1088E+03	1.6457E+02
1.1093E+03	1.6170E+02
1.1098E+03	4.3723E+01
1.1102E+03	1.8284E+01
1.1107E+03	3.8964E+01
1.1112E+03	8.1377E+01
1.1117E+03	9.1467E+01
1.1122E+03	8.3008E+01
1.1127E+03	4.2314E+01
1.1131E+03	3.9319E-01
1.1136E+03	8.5095E-01
1.1141E+03	4.0584E+01
1.1146E+03	6.9172E+01
1.1151E+03	8.0780E+01
1.1155E+03	9.1243E+01
1.1160E+03	1.0355E+02
1.1165E+03	1.1047E+02
1.1170E+03	1.1069E+02
1.1175E+03	1.0332E+02
1.1180E+03	7.9573E+01
1.1184E+03	4.9507E+01
1.1189E+03	4.7983E+01
1.1194E+03	4.1689E+01
1.1199E+03	3.5678E+01
1.1204E+03	6.5176E+01
1.1209E+03	5.0681E+01
1.1213E+03	8.8301E+01
1.1218E+03	1.2499E+02
1.1223E+03	1.2764E+02
1.1228E+03	1.0553E+02
1.1233E+03	7.0718E+01
1.1237E+03	2.2572E+01
1.1242E+03	5.0018E-01
1.1247E+03	8.2130E+00
1.1252E+03	3.2712E+01
1.1257E+03	8.3365E+01
1.1262E+03	1.1583E+02
1.1266E+03	1.0645E+02
1.1271E+03	7.6821E+01
1.1276E+03	4.8702E+01
1.1281E+03	2.5576E+01
1.1286E+03	2.4345E+01
1.1290E+03	4.7577E+01
1.1295E+03	7.8436E+01
1.1300E+03	1.2082E+02
1.1305E+03	1.3232E+02
1.1310E+03	9.5403E+01
1.1315E+03	5.2705E+01
1.1319E+03	3.9357E+01
1.1324E+03	4.2585E+01
1.1329E+03	2.8709E+01
1.1334E+03	3.9409E+01
1.1339E+03	1.3475E+01
1.1344E+03	6.5169E+01
1.1348E+03	1.0824E+02
1.1353E+03	1.3317E+02
1.1358E+03	1.3380E+02
1.1363E+03	1.0571E+02
1.1368E+03	6.8491E+01
1.1372E+03	4.4713E+01
1.1377E+03	3.5327E+01
1.1382E+03	4.5414E+01
1.1387E+03	6.7579E+01
1.1392E+03	6.5650E+01
1.1397E+03	4.5011E+01
1.1401E+03	4.7172E+01
1.1406E+03	8.4119E+01
1.1411E+03	1.1856E+02
1.1416E+03	1.2014E+02
1.1421E+03	1.0242E+02
1.1425E+03	7.3093E+01
1.1430E+03	4.6581E+01
1.1435E+03	6.6243E+01
1.1440E+03	1.1161E+02
1.1445E+03	1.1530E+02
1.1450E+03	7.5572E+01
1.1454E+03	5.7050E+01
1.1459E+03	9.5238E+01
1.1464E+03	1.2933E+02
1.1469E+03	8.1862E+01
1.1474E+03	1.9801E+01
1.1479E+03	2.0552E+01
1.1483E+03	5.6169E+01
1.1488E+03	1.0322E+02
1.1493E+03	1.4231E+02
1.1498E+03	1.2889E+02
1.1503E+03	5.7234E+01
1.1507E+03	2.3112E+00
1.1512E+03	7.2645E+00
1.1517E+03	2.9128E+00
1.1522E+03	2.2821E+01
1.1527E+03	4.4407E+01
1.1532E+03	6.1400E+01
1.1536E+03	6.9518E+01
1.1541E+03	5.8312E+01
1.1546E+03	3.2414E+01
1.1551E+03	1.3789E+01
1.1556E+03	8.0457E+00
1.1560E+03	1.1023E+01
1.1565E+03	2.9696E+01
1.1570E+03	4.7960E+01
1.1575E+03	6.3076E+01
1.1580E+03	7.0782E+01
1.1585E+03	5.7823E+01
1.1589E+03	3.8136E+01
1.1594E+03	4.1756E+01
1.1599E+03	7.2733E+01
1.1604E+03	1.0262E+02
1.1609E+03	1.3791E+02
1.1614E+03	1.5828E+02
1.1618E+03	1.7080E+02
1.1623E+03	1.5537E+02
1.1628E+03	7.6645E+01
1.1633E+03	7.6591E+00
1.1638E+03	3.3938E+01
1.1642E+03	1.3061E+01
1.1647E+03	4.7406E+00
1.1652E+03	1.7781E+01
1.1657E+03	3.4083E+01
1.1662E+03	5.5878E+01
1.1667E+03	7.6889E+01
1.1671E+03	9.7891E+01
1.1676E+03	1.1145E+02
1.1681E+03	1.1326E+02
1.1686E+03	1.0108E+02
1.1691E+03	6.1261E+01
1.1695E+03	5.6360E-01
1.1700E+03	3.2610E+01
1.1705E+03	3.5027E+01
1.1710E+03	4.3005E+00
1.1715E+03	6.0981E+01
1.1720E+03	1.0775E+02
1.1724E+03	1.1592E+02
1.1729E+03	1.0616E+02
1.1734E+03	9.5264E+01
1.1739E+03	8.6506E+01
1.1744E+03	8.8079E+01
1.1748E+03	9.6926E+01
1.1753E+03	1.0583E+02
1.1758E+03	1.1231E+02
1.1763E+03	1.0342E+02
1.1768E+03	8.1295E+01
1.1773E+03	7.2439E+01
1.1777E+03	8.9422E+01
1.1782E+03	1.0339E+02
1.1787E+03	7.9124E+01
1.1792E+03	4.4550E+01
1.1797E+03	3.1653E+01
1.1802E+03	3.4326E+01
1.1806E+03	5.0697E+01
1.1811E+03	7.2695E+01
1.1816E+03	8.3135E+01
1.1821E+03	8.0977E+01
1.1826E+03	8.4367E+01
1.1830E+03	1.0684E+02
1.1835E+03	1.1876E+02
1.1840E+03	9.5338E+01
1.1845E+03	6.3495E+01
1.1850E+03	2.2882E+01
1.1855E+03	1.4009E+00
1.1859E+03	3.3877E+01
1.1864E+03	1.0133E+02
1.1869E+03	1.2879E+02
1.1874E+03	1.0202E+02
1.1879E+03	9.4061E+01
1.1883E+03	1.6128E+02
1.1888E+03	1.8478E+02
1.1893E+03	9.0394E+01
1.1898E+03	9.9282E+00
1.1903E+03	2.6011E+01
1.1908E+03	7.0308E+01
1.1912E+03	7.2067E+01
1.1917E+03	8.8269E+01
1.1922E+03	1.0079E+02
1.1927E+03	8.7171E+01
1.1932E+03	9.7645E+01
1.1937E+03	6.7019E+01
1.1941E+03	3.3884E+01
1.1946E+03	3.4584E+00
1.1951E+03	2.2885E+01
1.1956E+03	4.8388E+01
1.1961E+03	5.3797E+01
1.1965E+03	2.7859E+00
1.1970E+03	8.0741E+01
1.1975E+03	7.3922E+01
1.1980E+03	1.1032E+02
1.1985E+03	1.3766E+02
1.1990E+03	1.0185E+02
1.1994E+03	1.4749E+02
1.1999E+03	9.3918E+01
1.2004E+03	3.8708E+01
1.2009E+03	4.7345E+01
1.2014E+03	2.5742E+01
1.2018E+03	7.0044E+01
1.2023E+03	4.8219E+01
1.2028E+03	6.3409E+01
1.2033E+03	9.8424E+01
1.2038E+03	1.2500E+02
1.2043E+03	1.3669E+02
1.2047E+03	1.2591E+02
1.2052E+03	9.2985E+01
1.2057E+03	5.5500E+01
1.2062E+03	1.5303E+01
1.2067E+03	4.9955E+00
1.2072E+03	2.3949E+01
1.2076E+03	6.3876E+01
1.2081E+03	9.9497E+01
1.2086E+03	1.1675E+02
1.2091E+03	8.5421E+01
1.2096E+03	2.9875E+01
1.2100E+03	1.4752E+01
1.2105E+03	5.4958E+01
1.2110E+03	8.2780E+01
1.2115E+03	8.0459E+01
1.2120E+03	7.1952E+01
1.2125E+03	4.3832E+01
1.2129E+03	3.3097E+01
1.2134E+03	7.4092E+01
1.2139E+03	1.2023E+02
1.2144E+03	1.2200E+02
1.2149E+03	9.2466E+01
1.2153E+03	7.6195E+01
1.2158E+03	7.5396E+01
1.2163E+03	7.2366E+01
1.2168E+03	6.6414E+01
1.2173E+03	6.2450E+01
1.2178E+03	6.2211E+01
1.2182E+03	5.6720E+01
1.2187E+03	3.9902E+01
1.2192E+03	2.9561E+01
1.2197E+03	4.9069E+01
1.2202E+03	3.7745E+01
1.2207E+03	7.9396E+01
1.2211E+03	5.2829E+01
1.2216E+03	6.1100E+01
1.2221E+03	9.5556E+01
1.2226E+03	9.1688E+01
1.2231E+03	4.4867E+01
1.2235E+03	8.1496E+00
1.2240E+03	6.7950E+00
1.2245E+03	2.2588E+01
1.2250E+03	5.2282E+01
1.2255E+03	7.5920E+01
1.2260E+03	6.7461E+01
1.2264E+03	4.6434E+01
1.2269E+03	2.0115E+01
1.2274E+03	4.7978E+00
1.2279E+03	3.7827E+01
1.2284E+03	1.0892E+02
1.2288E+03	1.4715E+02
1.2293E+03	1.2115E+02
1.2298E+03	1.0139E+02
1.2303E+03	1.2686E+02
1.2308E+03	1.3481E+02
1.2313E+03	7.8302E+01
1.2317E+03	2.6798E+01
1.2322E+03	2.7657E+01
1.2327E+03	5.7266E+01
1.2332E+03	9.4223E+01
1.2337E+03	1.3411E+02
1.2342E+03	1.4113E+02
1.2346E+03	1.0152E+02
1.2351E+03	8.4332E+01
1.2356E+03	9.4638E+01
1.2361E+03	1.0561E+02
1.2366E+03	1.1396E+02
1.2370E+03	1.1094E+02
1.2375E+03	8.9842E+01
1.2380E+03	6.9990E+01
1.2385E+03	8.1070E+01
1.2390E+03	6.2606E+01
1.2395E+03	9.6558E+01
1.2399E+03	6.4938E+01
1.2404E+03	6.9974E+01
1.2409E+03	9.7835E+01
1.2414E+03	1.1481E+02
1.2419E+03	1.1842E+02
1.2423E+03	1.2012E+02
1.2428E+03	1.2819E+02
1.2433E+03	1.3542E+02
1.2438E+03	1.4026E+02
1.2443E+03	1.3723E+02
1.2448E+03	1.0857E+02
1.2452E+03	8.2132E+01
1.2457E+03	9.2647E+01
1.2462E+03	1.1899E+02
1.2467E+03	1.3073E+02
1.2472E+03	1.2564E+02
1.2476E+03	1.0294E+02
1.2481E+03	5.1185E+01
1.2486E+03	1.9351E+01
1.2491E+03	2.1291E+01
1.2496E+03	3.1175E+01
1.2501E+03	4.5866E+01
1.2505E+03	6.7717E+01
1.2510E+03	1.1056E+02
1.2515E+03	1.3962E+02
1.2520E+03	1.0526E+02
1.2525E+03	2.9510E+01
1.2530E+03	7.0740E-01
1.2534E+03	1.5681E+01
1.2539E+03	3.5544E+01
1.2544E+03	5.8381E+01
1.2549E+03	9.4219E+01
1.2554E+03	1.4223E+02
1.2558E+03	1.5958E+02
1.2563E+03	1.2697E+02
1.2568E+03	9.2125E+01
1.2573E+03	1.0255E+02
1.2578E+03	1.3217E+02
1.2583E+03	1.5791E+02
1.2587E+03	1.7056E+02
1.2592E+03	1.4511E+02
1.2597E+03	1.0378E+02
1.2602E+03	8.4117E+01
1.2607E+03	8.5496E+01
1.2611E+03	8.6218E+01
1.2616E+03	8.0319E+01
1.2621E+03	8.4363E+01
1.2626E+03	1.1403E+02
1.2631E+03	1.4007E+02
1.2636E+03	1.5470E+02
1.2640E+03	1.6355E+02
1.2645E+03	1.6762E+02
1.2650E+03	1.6810E+02
1.2655E+03	1.6557E+02
1.2660E+03	1.6050E+02
1.2665E+03	1.5427E+02
1.2669E+03	1.4693E+02
1.2674E+03	1.3256E+02
1.2679E+03	1.0791E+02
1.2684E+03	1.0706E+02
1.2689E+03	1.3557E+02
1.2693E+03	1.3897E+02
1.2698E+03	9.9213E+01
1.2703E+03	6.2756E+01
1.2708E+03	6.3471E+01
1.2713E+03	8.2996E+01
1.2718E+03	1.0152E+02
1.2722E+03	1.1656E+02
1.2727E+03	1.2738E+02
1.2732E+03	1.2887E+02
1.2737E+03	1.0499E+02
1.2742E+03	6.6300E+01
1.2746E+03	2.8936E+01
1.2751E+03	3.0089E+00
1.2756E+03	1.8803E+01
1.2761E+03	1.0416E+02
1.2766E+03	1.5853E+02
1.2771E+03	1.0893E+02
1.2775E+03	6.6611E+01
1.2780E+03	8.0728E+01
1.2785E+03	1.0903E+02
1.2790E+03	1.3137E+02
1.2795E+03	1.4655E+02
1.2800E+03	1.5642E+02
1.2804E+03	1.5776E+02
1.2809E+03	1.3444E+02
1.2814E+03	8.1920E+01
1.2819E+03	3.7266E+01
1.2824E+03	1.5533E+00
1.2828E+03	2.3775E+00
1.2833E+03	4.0591E+01
1.2838E+03	8.1748E+01
1.2843E+03	9.5549E+01
1.2848E+03	7.8529E+01
1.2853E+03	4.7500E+01
1.2857E+03	0.0000E+00
##END=	
