1.5112E+02	0.0000E+00
1.5160E+02	5.5021E+00
1.5208E+02	6.4965E+00
1.5257E+02	5.9045E-01
1.5305E+02	4.7522E-01
1.5353E+02	6.7810E+00
1.5401E+02	2.6359E+01
1.5449E+02	4.7882E+01
1.5498E+02	5.9919E+01
1.5546E+02	4.4066E+01
1.5594E+02	3.4009E+01
1.5642E+02	4.1861E+01
1.5691E+02	7.0260E+01
1.5739E+02	8.7279E+01
1.5787E+02	9.0513E+01
1.5835E+02	8.5367E+01
1.5883E+02	7.8636E+01
1.5932E+02	7.0132E+01
1.5980E+02	6.1731E+01
1.6028E+02	5.3712E+01
1.6076E+02	4.3081E+01
1.6124E+02	3.8204E+01
1.6173E+02	4.7336E+01
1.6221E+02	6.4694E+01
1.6269E+02	7.5744E+01
1.6317E+02	6.9662E+01
1.6365E+02	5.8816E+01
1.6414E+02	5.1576E+01
1.6462E+02	5.1555E+01
1.6510E+02	5.4704E+01
1.6558E+02	6.0509E+01
1.6607E+02	6.1844E+01
1.6655E+02	6.2670E+01
1.6703E+02	6.1579E+01
1.6751E+02	6.0404E+01
1.6799E+02	6.0928E+01
1.6848E+02	6.5903E+01
1.6896E+02	7.4421E+01
1.6944E+02	7.9261E+01
1.6992E+02	8.3736E+01
1.7040E+02	8.6036E+01
1.7089E+02	8.5856E+01
1.7137E+02	8.4444E+01
1.7185E+02	7.8166E+01
1.7233E+02	5.7487E+01
1.7281E+02	3.7506E+01
1.7330E+02	3.4217E+01
1.7378E+02	4.9598E+01
1.7426E+02	6.6825E+01
1.7474E+02	7.3147E+01
1.7523E+02	6.7566E+01
1.7571E+02	5.6894E+01
1.7619E+02	4.4664E+01
1.7667E+02	3.3464E+01
1.7715E+02	2.7844E+01
1.7764E+02	2.8799E+01
1.7812E+02	3.0176E+01
1.7860E+02	2.3570E+01
1.7908E+02	1.2556E+01
1.7956E+02	3.8687E+00
1.8005E+02	8.7926E+00
1.8053E+02	2.3793E+01
1.8101E+02	4.3713E+01
1.8149E+02	7.2259E+01
1.8198E+02	9.7017E+01
1.8246E+02	9.5224E+01
1.8294E+02	6.9797E+01
1.8342E+02	4.4059E+01
1.8390E+02	3.8156E+01
1.8439E+02	4.5232E+01
1.8487E+02	4.4526E+01
1.8535E+02	2.8121E+01
1.8583E+02	5.8556E+00
1.8631E+02	2.8879E+00
1.8680E+02	1.7860E+00
1.8728E+02	1.0387E+01
1.8776E+02	1.5261E+01
1.8824E+02	1.7127E+01
1.8872E+02	2.0253E+01
1.8921E+02	2.8046E+01
1.8969E+02	3.6783E+01
1.9017E+02	3.4313E+01
1.9065E+02	1.9527E+01
1.9114E+02	3.1595E+00
1.9162E+02	3.4841E+00
1.9210E+02	9.9817E-01
1.9258E+02	3.4027E+00
1.9306E+02	8.6698E+00
1.9355E+02	1.4179E+01
1.9403E+02	1.6466E+01
1.9451E+02	1.5114E+01
1.9499E+02	1.2360E+01
1.9547E+02	1.1716E+01
1.9596E+02	1.3250E+01
1.9644E+02	1.2529E+01
1.9692E+02	6.0822E+00
1.9740E+02	5.3586E+00
1.9788E+02	1.2002E+01
1.9837E+02	1.3403E+01
1.9885E+02	1.1050E+01
1.9933E+02	5.7405E+00
1.9981E+02	3.2241E+00
2.0030E+02	9.8068E+00
2.0078E+02	1.0583E+01
2.0126E+02	5.3170E+00
2.0174E+02	8.0176E-01
2.0222E+02	2.9120E+00
2.0271E+02	5.9235E+00
2.0319E+02	8.4868E+00
2.0367E+02	1.0704E+01
2.0415E+02	1.2229E+01
2.0463E+02	1.2451E+01
2.0512E+02	1.1079E+01
2.0560E+02	1.1553E+01
2.0608E+02	1.5581E+01
2.0656E+02	2.0393E+01
2.0705E+02	1.7243E+01
2.0753E+02	2.9719E+00
2.0801E+02	9.8525E+00
2.0849E+02	1.2486E+01
2.0897E+02	2.5623E+00
2.0946E+02	2.5087E+00
2.0994E+02	5.1917E-01
2.1042E+02	8.8112E+00
2.1090E+02	1.1730E+01
2.1138E+02	6.7834E+00
2.1187E+02	2.1160E+00
2.1235E+02	4.5240E+00
2.1283E+02	1.6981E+01
2.1331E+02	2.4358E+01
2.1379E+02	2.2410E+01
2.1428E+02	1.3721E+01
2.1476E+02	1.3713E+01
2.1524E+02	2.5377E+01
2.1572E+02	4.0314E+01
2.1621E+02	5.1998E+01
2.1669E+02	5.9388E+01
2.1717E+02	6.6883E+01
2.1765E+02	7.6576E+01
2.1813E+02	8.7718E+01
2.1862E+02	8.9619E+01
2.1910E+02	7.5503E+01
2.1958E+02	6.1849E+01
2.2006E+02	6.5561E+01
2.2054E+02	9.5985E+01
2.2103E+02	1.1975E+02
2.2151E+02	1.2898E+02
2.2199E+02	1.2389E+02
2.2247E+02	1.2341E+02
2.2296E+02	1.2804E+02
2.2344E+02	1.3667E+02
2.2392E+02	1.4901E+02
2.2440E+02	1.6654E+02
2.2488E+02	1.8381E+02
2.2537E+02	1.9826E+02
2.2585E+02	2.0950E+02
2.2633E+02	2.2843E+02
2.2681E+02	2.6190E+02
2.2729E+02	2.9640E+02
2.2778E+02	3.1425E+02
2.2826E+02	3.0045E+02
2.2874E+02	2.9948E+02
2.2922E+02	3.2631E+02
2.2970E+02	3.8543E+02
2.3019E+02	4.3108E+02
2.3067E+02	4.5623E+02
2.3115E+02	4.7319E+02
2.3163E+02	4.9798E+02
2.3212E+02	5.3408E+02
2.3260E+02	5.7115E+02
2.3308E+02	6.0497E+02
2.3356E+02	6.3236E+02
2.3404E+02	6.7411E+02
2.3453E+02	7.3343E+02
2.3501E+02	8.0539E+02
2.3549E+02	8.8421E+02
2.3597E+02	9.7391E+02
2.3645E+02	1.0639E+03
2.3694E+02	1.1511E+03
2.3742E+02	1.2357E+03
2.3790E+02	1.3175E+03
2.3838E+02	1.3919E+03
2.3886E+02	1.4658E+03
2.3935E+02	1.5528E+03
2.3983E+02	1.6557E+03
2.4031E+02	1.7664E+03
2.4079E+02	1.8827E+03
2.4128E+02	2.0080E+03
2.4176E+02	2.1274E+03
2.4224E+02	2.2357E+03
2.4272E+02	2.3405E+03
2.4320E+02	2.4539E+03
2.4369E+02	2.5722E+03
2.4417E+02	2.7049E+03
2.4465E+02	2.8594E+03
2.4513E+02	3.0498E+03
2.4561E+02	3.2166E+03
2.4610E+02	3.3478E+03
2.4658E+02	3.4613E+03
2.4706E+02	3.5914E+03
2.4754E+02	3.7426E+03
2.4803E+02	3.9034E+03
2.4851E+02	4.0755E+03
2.4899E+02	4.2720E+03
2.4947E+02	4.4337E+03
2.4995E+02	4.5534E+03
2.5044E+02	4.6428E+03
2.5092E+02	4.7305E+03
2.5140E+02	4.8371E+03
2.5188E+02	4.9055E+03
2.5236E+02	4.9115E+03
2.5285E+02	4.8450E+03
2.5333E+02	4.7466E+03
2.5381E+02	4.6210E+03
2.5429E+02	4.4625E+03
2.5477E+02	4.2546E+03
2.5526E+02	3.9756E+03
2.5574E+02	3.6838E+03
2.5622E+02	3.3978E+03
2.5670E+02	3.1197E+03
2.5719E+02	2.8475E+03
2.5767E+02	2.5766E+03
2.5815E+02	2.3155E+03
2.5863E+02	2.0875E+03
2.5911E+02	1.9013E+03
2.5960E+02	1.7347E+03
2.6008E+02	1.5804E+03
2.6056E+02	1.4355E+03
2.6104E+02	1.3077E+03
2.6152E+02	1.1998E+03
2.6201E+02	1.1069E+03
2.6249E+02	1.0207E+03
2.6297E+02	9.3996E+02
2.6345E+02	8.6716E+02
2.6393E+02	8.0196E+02
2.6442E+02	7.4263E+02
2.6490E+02	6.9781E+02
2.6538E+02	6.7273E+02
2.6586E+02	6.5772E+02
2.6635E+02	6.3168E+02
2.6683E+02	5.9003E+02
2.6731E+02	5.4815E+02
2.6779E+02	5.1114E+02
2.6827E+02	4.7815E+02
2.6876E+02	4.5589E+02
2.6924E+02	4.4835E+02
2.6972E+02	4.4866E+02
2.7020E+02	4.4241E+02
2.7068E+02	4.2769E+02
2.7117E+02	4.1225E+02
2.7165E+02	3.9881E+02
2.7213E+02	3.8716E+02
2.7261E+02	3.7908E+02
2.7310E+02	3.7465E+02
2.7358E+02	3.7373E+02
2.7406E+02	3.7591E+02
2.7454E+02	3.8105E+02
2.7502E+02	3.8974E+02
2.7551E+02	4.0500E+02
2.7599E+02	4.2836E+02
2.7647E+02	4.4167E+02
2.7695E+02	4.4227E+02
2.7743E+02	4.3613E+02
2.7792E+02	4.3221E+02
2.7840E+02	4.2977E+02
2.7888E+02	4.3391E+02
2.7936E+02	4.5044E+02
2.7984E+02	4.7973E+02
2.8033E+02	5.0059E+02
2.8081E+02	5.0946E+02
2.8129E+02	5.1518E+02
2.8177E+02	5.3654E+02
2.8226E+02	5.7550E+02
2.8274E+02	6.0813E+02
2.8322E+02	6.1687E+02
2.8370E+02	6.0352E+02
2.8418E+02	6.0808E+02
2.8467E+02	6.3405E+02
2.8515E+02	6.7099E+02
2.8563E+02	7.0949E+02
2.8611E+02	7.4970E+02
2.8659E+02	7.7697E+02
2.8708E+02	7.8065E+02
2.8756E+02	7.6362E+02
2.8804E+02	7.4615E+02
2.8852E+02	7.2853E+02
2.8901E+02	7.1005E+02
2.8949E+02	6.9034E+02
2.8997E+02	6.6925E+02
2.9045E+02	6.4542E+02
2.9093E+02	6.1934E+02
2.9142E+02	5.9015E+02
2.9190E+02	5.5341E+02
2.9238E+02	5.0779E+02
2.9286E+02	4.6047E+02
2.9334E+02	4.2067E+02
2.9383E+02	3.8722E+02
2.9431E+02	3.5569E+02
2.9479E+02	3.2429E+02
2.9527E+02	2.9322E+02
2.9575E+02	2.6192E+02
2.9624E+02	2.3035E+02
2.9672E+02	2.0133E+02
2.9720E+02	1.7899E+02
2.9768E+02	1.6232E+02
2.9817E+02	1.4756E+02
2.9865E+02	1.3172E+02
2.9913E+02	1.1744E+02
2.9961E+02	1.1033E+02
3.0009E+02	1.1062E+02
3.0058E+02	1.1261E+02
3.0106E+02	1.1369E+02
3.0154E+02	1.1259E+02
3.0202E+02	1.0620E+02
3.0250E+02	8.8245E+01
3.0299E+02	6.7309E+01
3.0347E+02	5.5102E+01
3.0395E+02	5.1306E+01
3.0443E+02	5.0837E+01
3.0491E+02	5.2207E+01
3.0540E+02	5.3776E+01
3.0588E+02	5.2732E+01
3.0636E+02	4.5901E+01
3.0684E+02	3.7874E+01
3.0733E+02	3.3824E+01
3.0781E+02	3.3964E+01
3.0829E+02	3.4945E+01
3.0877E+02	3.3811E+01
3.0925E+02	3.1723E+01
3.0974E+02	3.0584E+01
3.1022E+02	3.3661E+01
3.1070E+02	3.4594E+01
3.1118E+02	2.6123E+01
3.1166E+02	1.0749E+01
3.1215E+02	2.3507E+00
3.1263E+02	1.0476E+01
3.1311E+02	1.2893E+01
3.1359E+02	7.9969E+00
3.1408E+02	1.2598E+01
3.1456E+02	2.9670E+01
3.1504E+02	3.0004E+01
3.1552E+02	1.7558E+01
3.1600E+02	6.4409E+00
3.1649E+02	1.8058E+00
3.1697E+02	1.2422E+00
3.1745E+02	3.4109E+00
3.1793E+02	9.0363E+00
3.1841E+02	1.5277E+01
3.1890E+02	2.2280E+01
3.1938E+02	2.8972E+01
3.1986E+02	3.3023E+01
3.2034E+02	3.4682E+01
3.2082E+02	3.2824E+01
3.2131E+02	2.5318E+01
3.2179E+02	5.8611E+00
3.2227E+02	6.1593E+00
3.2275E+02	2.4271E+00
3.2324E+02	1.1167E+01
3.2372E+02	2.3599E+01
3.2420E+02	3.1327E+01
3.2468E+02	3.8798E+01
3.2516E+02	4.8087E+01
3.2565E+02	6.1162E+01
3.2613E+02	7.1057E+01
3.2661E+02	7.8903E+01
3.2709E+02	8.2839E+01
3.2757E+02	8.0115E+01
3.2806E+02	5.5551E+01
3.2854E+02	3.9174E+01
3.2902E+02	4.1279E+01
3.2950E+02	6.8083E+01
3.2999E+02	8.5938E+01
3.3047E+02	8.9529E+01
3.3095E+02	8.7091E+01
3.3143E+02	8.7287E+01
3.3191E+02	8.8647E+01
3.3240E+02	9.4926E+01
3.3288E+02	1.0928E+02
3.3336E+02	1.3205E+02
3.3384E+02	1.4848E+02
3.3432E+02	1.5561E+02
3.3481E+02	1.5961E+02
3.3529E+02	1.6590E+02
3.3577E+02	1.7586E+02
3.3625E+02	1.8552E+02
3.3673E+02	1.9431E+02
3.3722E+02	2.0200E+02
3.3770E+02	2.0998E+02
3.3818E+02	2.1891E+02
3.3866E+02	2.2717E+02
3.3915E+02	2.3333E+02
3.3963E+02	2.3720E+02
3.4011E+02	2.4025E+02
3.4059E+02	2.4275E+02
3.4107E+02	2.4463E+02
3.4156E+02	2.4549E+02
3.4204E+02	2.4537E+02
3.4252E+02	2.4417E+02
3.4300E+02	2.4105E+02
3.4348E+02	2.3606E+02
3.4397E+02	2.3394E+02
3.4445E+02	2.3693E+02
3.4493E+02	2.4149E+02
3.4541E+02	2.3763E+02
3.4589E+02	2.2477E+02
3.4638E+02	2.1325E+02
3.4686E+02	2.1286E+02
3.4734E+02	2.2104E+02
3.4782E+02	2.2453E+02
3.4831E+02	2.2158E+02
3.4879E+02	2.1764E+02
3.4927E+02	2.2282E+02
3.4975E+02	2.3460E+02
3.5023E+02	2.4117E+02
3.5072E+02	2.3555E+02
3.5120E+02	2.2118E+02
3.5168E+02	2.0227E+02
3.5216E+02	1.7832E+02
3.5264E+02	1.5604E+02
3.5313E+02	1.4395E+02
3.5361E+02	1.3857E+02
3.5409E+02	1.3290E+02
3.5457E+02	1.2282E+02
3.5506E+02	1.1171E+02
3.5554E+02	1.0507E+02
3.5602E+02	1.0281E+02
3.5650E+02	9.9182E+01
3.5698E+02	8.9698E+01
3.5747E+02	7.6703E+01
3.5795E+02	6.3016E+01
3.5843E+02	4.7928E+01
3.5891E+02	3.4509E+01
3.5939E+02	2.4627E+01
3.5988E+02	1.8032E+01
3.6036E+02	1.3689E+01
3.6084E+02	1.2064E+01
3.6132E+02	1.2014E+01
3.6180E+02	1.2997E+01
3.6229E+02	1.6262E+01
3.6277E+02	1.8258E+01
3.6325E+02	1.8613E+01
3.6373E+02	1.6710E+01
3.6422E+02	1.1113E+01
3.6470E+02	5.5845E+00
3.6518E+02	2.0549E+01
3.6566E+02	2.7417E+01
3.6614E+02	2.2513E+01
3.6663E+02	1.7409E+01
3.6711E+02	1.5645E+01
3.6759E+02	1.4329E+01
3.6807E+02	9.0112E+00
3.6855E+02	1.0371E+01
3.6904E+02	2.4533E+01
3.6952E+02	2.7052E+01
3.7000E+02	1.5354E+01
3.7048E+02	6.3544E+00
3.7096E+02	1.6544E+00
3.7145E+02	1.0007E+00
3.7193E+02	4.1676E+00
3.7241E+02	9.9406E+00
3.7289E+02	1.2976E+01
3.7338E+02	1.1133E+01
3.7386E+02	4.9785E+00
3.7434E+02	2.6050E+00
3.7482E+02	6.3458E+00
3.7530E+02	1.0277E+01
3.7579E+02	9.8173E+00
3.7627E+02	3.8973E+00
3.7675E+02	1.8800E+00
3.7723E+02	7.0470E+00
3.7771E+02	1.1594E+01
3.7820E+02	1.5438E+01
3.7868E+02	1.8449E+01
3.7916E+02	2.1273E+01
3.7964E+02	2.5464E+01
3.8013E+02	3.0873E+01
3.8061E+02	3.1035E+01
3.8109E+02	2.3964E+01
3.8157E+02	1.4855E+01
3.8205E+02	1.2583E+01
3.8254E+02	1.6822E+01
3.8302E+02	2.1371E+01
3.8350E+02	2.2545E+01
3.8398E+02	2.1729E+01
3.8446E+02	2.4101E+01
3.8495E+02	3.0086E+01
3.8543E+02	3.5698E+01
3.8591E+02	3.5338E+01
3.8639E+02	3.1327E+01
3.8687E+02	3.0165E+01
3.8736E+02	3.7794E+01
3.8784E+02	4.6673E+01
3.8832E+02	4.5327E+01
3.8880E+02	3.4826E+01
3.8929E+02	2.6015E+01
3.8977E+02	3.1169E+01
3.9025E+02	4.0471E+01
3.9073E+02	4.0970E+01
3.9121E+02	2.3351E+01
3.9170E+02	6.3925E+00
3.9218E+02	4.4208E+00
3.9266E+02	1.3133E+01
3.9314E+02	1.9798E+01
3.9362E+02	1.2402E+01
3.9411E+02	5.5708E+00
3.9459E+02	1.1006E+01
3.9507E+02	3.6833E+01
3.9555E+02	5.4792E+01
3.9604E+02	4.8586E+01
3.9652E+02	3.0700E+01
3.9700E+02	1.9444E+01
3.9748E+02	2.6432E+01
3.9796E+02	3.3342E+01
3.9845E+02	3.3563E+01
3.9893E+02	2.5321E+01
3.9941E+02	2.1356E+01
3.9989E+02	2.9972E+01
4.0037E+02	3.8866E+01
4.0086E+02	3.7921E+01
4.0134E+02	1.7617E+01
4.0182E+02	1.2756E+00
4.0230E+02	9.9778E+00
4.0278E+02	1.5848E+01
4.0327E+02	1.1230E+01
4.0375E+02	1.0784E+01
4.0423E+02	3.2663E+01
4.0471E+02	4.4143E+01
4.0520E+02	4.3090E+01
4.0568E+02	3.9128E+01
4.0616E+02	2.9639E+01
4.0664E+02	1.9294E+01
4.0712E+02	1.9370E+01
4.0761E+02	3.2072E+01
4.0809E+02	4.2003E+01
4.0857E+02	3.9197E+01
4.0905E+02	2.5247E+01
4.0953E+02	2.4369E+01
4.1002E+02	3.8150E+01
4.1050E+02	5.2156E+01
4.1098E+02	4.4345E+01
4.1146E+02	1.8712E+01
4.1194E+02	1.5571E+00
4.1243E+02	5.8489E+00
4.1291E+02	2.0641E+01
4.1339E+02	2.4044E+01
4.1387E+02	1.6960E+01
4.1436E+02	8.8812E+00
4.1484E+02	7.7814E+00
4.1532E+02	1.0758E+01
4.1580E+02	1.2450E+01
4.1628E+02	9.8674E+00
4.1677E+02	7.0320E+00
4.1725E+02	6.8983E+00
4.1773E+02	9.2980E+00
4.1821E+02	1.3867E+01
4.1869E+02	2.5052E+01
4.1918E+02	3.5231E+01
4.1966E+02	3.7493E+01
4.2014E+02	2.9706E+01
4.2062E+02	2.2854E+01
4.2111E+02	2.2074E+01
4.2159E+02	2.4636E+01
4.2207E+02	2.7416E+01
4.2255E+02	3.1254E+01
4.2303E+02	3.2233E+01
4.2352E+02	2.8139E+01
4.2400E+02	1.9874E+01
4.2448E+02	1.5358E+01
4.2496E+02	1.9335E+01
4.2544E+02	2.4340E+01
4.2593E+02	2.6241E+01
4.2641E+02	2.1178E+01
4.2689E+02	1.8840E+01
4.2737E+02	2.0406E+01
4.2785E+02	2.4739E+01
4.2834E+02	2.8429E+01
4.2882E+02	3.0125E+01
4.2930E+02	3.3654E+01
4.2978E+02	4.2568E+01
4.3027E+02	5.8699E+01
4.3075E+02	6.3755E+01
4.3123E+02	5.5196E+01
4.3171E+02	4.1194E+01
4.3219E+02	2.9718E+01
4.3268E+02	2.0188E+01
4.3316E+02	1.6133E+01
4.3364E+02	2.0853E+01
4.3412E+02	3.1620E+01
4.3460E+02	3.8460E+01
4.3509E+02	4.1063E+01
4.3557E+02	4.1401E+01
4.3605E+02	4.1836E+01
4.3653E+02	4.1309E+01
4.3701E+02	3.5178E+01
4.3750E+02	2.0018E+01
4.3798E+02	5.7025E+00
4.3846E+02	8.0677E+00
4.3894E+02	2.2304E+01
4.3943E+02	3.3225E+01
4.3991E+02	2.6129E+01
4.4039E+02	1.5496E+01
4.4087E+02	1.8475E+01
4.4135E+02	3.6981E+01
4.4184E+02	5.3865E+01
4.4232E+02	5.9715E+01
4.4280E+02	5.8109E+01
4.4328E+02	5.3111E+01
4.4376E+02	4.2102E+01
4.4425E+02	3.1876E+01
4.4473E+02	2.3988E+01
4.4521E+02	1.8677E+01
4.4569E+02	1.7328E+01
4.4618E+02	2.2985E+01
4.4666E+02	3.0571E+01
4.4714E+02	3.7560E+01
4.4762E+02	4.4247E+01
4.4810E+02	4.9639E+01
4.4859E+02	5.6378E+01
4.4907E+02	6.0997E+01
4.4955E+02	5.6858E+01
4.5003E+02	3.6777E+01
4.5051E+02	2.0433E+01
4.5100E+02	1.3876E+01
4.5148E+02	1.7425E+01
4.5196E+02	1.8728E+01
4.5244E+02	1.6951E+01
4.5292E+02	1.5618E+01
4.5341E+02	1.8655E+01
4.5389E+02	2.6676E+01
4.5437E+02	3.2520E+01
4.5485E+02	3.5117E+01
4.5534E+02	3.4943E+01
4.5582E+02	3.0802E+01
4.5630E+02	2.2756E+01
4.5678E+02	1.8258E+01
4.5726E+02	2.7559E+01
4.5775E+02	4.3302E+01
4.5823E+02	4.3480E+01
4.5871E+02	2.5156E+01
4.5919E+02	4.9314E+00
4.5967E+02	3.6804E-01
4.6016E+02	4.5699E+00
4.6064E+02	1.0174E+01
4.6112E+02	2.0389E+01
4.6160E+02	2.8530E+01
4.6209E+02	2.2423E+01
4.6257E+02	5.2799E+00
4.6305E+02	4.7662E+00
4.6353E+02	9.2996E+00
4.6401E+02	2.9397E+01
4.6450E+02	4.2185E+01
4.6498E+02	4.5417E+01
4.6546E+02	4.2047E+01
4.6594E+02	2.5180E+01
4.6642E+02	3.5009E+00
4.6691E+02	8.5255E+00
4.6739E+02	2.0215E-01
4.6787E+02	9.9854E+00
4.6835E+02	1.5534E+01
4.6883E+02	1.6210E+01
4.6932E+02	1.8973E+01
4.6980E+02	2.5677E+01
4.7028E+02	3.2181E+01
4.7076E+02	3.5560E+01
4.7125E+02	3.6077E+01
4.7173E+02	3.0277E+01
4.7221E+02	1.4105E+01
4.7269E+02	5.8535E+00
4.7317E+02	1.2558E+01
4.7366E+02	4.2499E+00
4.7414E+02	5.9252E+00
4.7462E+02	1.2585E+01
4.7510E+02	1.6073E+01
4.7558E+02	1.8598E+01
4.7607E+02	2.0333E+01
4.7655E+02	2.0708E+01
4.7703E+02	1.6216E+01
4.7751E+02	9.3093E+00
4.7799E+02	8.6514E+00
4.7848E+02	2.1782E+01
4.7896E+02	3.6259E+01
4.7944E+02	3.3764E+01
4.7992E+02	1.7978E+01
4.8041E+02	5.0697E+00
4.8089E+02	5.2776E+00
4.8137E+02	1.2015E+01
4.8185E+02	2.0584E+01
4.8233E+02	3.0920E+01
4.8282E+02	4.0536E+01
4.8330E+02	5.1884E+01
4.8378E+02	6.0725E+01
4.8426E+02	6.1433E+01
4.8474E+02	3.6763E+01
4.8523E+02	2.0751E+01
4.8571E+02	2.9442E+01
4.8619E+02	6.0165E+01
4.8667E+02	7.5358E+01
4.8716E+02	6.0178E+01
4.8764E+02	4.2691E+01
4.8812E+02	3.6781E+01
4.8860E+02	4.8195E+01
4.8908E+02	5.7660E+01
4.8957E+02	6.6193E+01
4.9005E+02	7.1856E+01
4.9053E+02	7.0966E+01
4.9101E+02	6.2162E+01
4.9149E+02	5.3403E+01
4.9198E+02	4.6414E+01
4.9246E+02	4.1374E+01
4.9294E+02	4.0427E+01
4.9342E+02	4.3938E+01
4.9390E+02	4.6870E+01
4.9439E+02	4.3749E+01
4.9487E+02	3.6764E+01
4.9535E+02	3.2742E+01
4.9583E+02	3.2854E+01
4.9632E+02	3.5623E+01
4.9680E+02	4.0852E+01
4.9728E+02	4.7377E+01
4.9776E+02	5.2365E+01
4.9824E+02	5.4927E+01
4.9873E+02	5.5356E+01
4.9921E+02	5.3933E+01
4.9969E+02	4.9681E+01
5.0017E+02	4.4264E+01
5.0065E+02	3.3938E+01
5.0114E+02	2.5522E+01
5.0162E+02	2.4811E+01
5.0210E+02	4.3669E+01
5.0258E+02	5.4470E+01
5.0306E+02	4.4537E+01
5.0355E+02	2.3679E+01
5.0403E+02	1.6741E+01
5.0451E+02	4.0474E+01
5.0499E+02	5.7533E+01
5.0548E+02	5.6179E+01
5.0596E+02	3.5564E+01
5.0644E+02	1.8578E+01
5.0692E+02	2.8907E+00
5.0740E+02	4.7731E+00
5.0789E+02	5.7581E+00
5.0837E+02	3.7168E+01
5.0885E+02	5.6711E+01
5.0933E+02	5.8508E+01
5.0981E+02	4.9977E+01
5.1030E+02	4.2527E+01
5.1078E+02	3.6356E+01
5.1126E+02	3.3847E+01
5.1174E+02	4.1048E+01
5.1223E+02	5.1390E+01
5.1271E+02	5.0493E+01
5.1319E+02	3.8197E+01
5.1367E+02	2.4442E+01
5.1415E+02	1.4799E+01
5.1464E+02	9.0334E+00
5.1512E+02	7.9387E+00
5.1560E+02	1.5706E+01
5.1608E+02	2.0275E+01
5.1656E+02	7.3640E+00
5.1705E+02	1.2872E+01
5.1753E+02	1.9574E+01
5.1801E+02	1.2311E+01
5.1849E+02	4.1968E+01
5.1897E+02	5.1353E+01
5.1946E+02	3.7305E+01
5.1994E+02	2.8511E+01
5.2042E+02	3.1012E+01
5.2090E+02	3.4328E+01
5.2139E+02	3.1928E+01
5.2187E+02	1.8557E+01
5.2235E+02	1.0465E+01
5.2283E+02	8.5194E+00
5.2331E+02	1.2316E+01
5.2380E+02	2.4769E+01
5.2428E+02	4.9049E+01
5.2476E+02	6.2185E+01
5.2524E+02	4.9973E+01
5.2572E+02	1.8807E+01
5.2621E+02	4.5741E+00
5.2669E+02	7.8602E+00
5.2717E+02	1.7877E+01
5.2765E+02	3.0379E+01
5.2814E+02	4.2194E+01
5.2862E+02	4.5081E+01
5.2910E+02	3.3666E+01
5.2958E+02	2.1883E+01
5.3006E+02	2.5033E+01
5.3055E+02	3.6733E+01
5.3103E+02	4.5055E+01
5.3151E+02	4.2622E+01
5.3199E+02	3.8578E+01
5.3247E+02	3.8561E+01
5.3296E+02	4.2346E+01
5.3344E+02	4.2791E+01
5.3392E+02	3.1143E+01
5.3440E+02	2.0254E+01
5.3488E+02	1.8336E+01
5.3537E+02	3.2704E+01
5.3585E+02	4.4667E+01
5.3633E+02	5.7227E+01
5.3681E+02	6.5906E+01
5.3730E+02	6.1720E+01
5.3778E+02	3.7213E+01
5.3826E+02	2.1113E+01
5.3874E+02	2.3507E+01
5.3922E+02	4.0168E+01
5.3971E+02	4.7449E+01
5.4019E+02	4.4534E+01
5.4067E+02	4.0525E+01
5.4115E+02	4.5462E+01
5.4163E+02	5.5104E+01
5.4212E+02	5.0128E+01
5.4260E+02	2.6162E+01
5.4308E+02	3.0016E+00
5.4356E+02	2.8734E+00
5.4404E+02	1.8526E+01
5.4453E+02	3.6113E+01
5.4501E+02	5.8529E+01
5.4549E+02	7.3529E+01
5.4597E+02	6.5767E+01
5.4646E+02	4.1487E+01
5.4694E+02	2.4447E+01
5.4742E+02	3.4422E+01
5.4790E+02	4.5755E+01
5.4838E+02	4.3364E+01
5.4887E+02	2.0018E+01
5.4935E+02	4.5139E+00
5.4983E+02	1.3625E+00
5.5031E+02	5.4995E+00
5.5079E+02	1.4097E+01
5.5128E+02	3.3465E+01
5.5176E+02	4.2411E+01
5.5224E+02	3.5043E+01
5.5272E+02	1.7860E+01
5.5321E+02	7.1254E+00
5.5369E+02	2.8147E+00
5.5417E+02	5.1958E+00
5.5465E+02	2.1240E+01
5.5513E+02	4.5176E+01
5.5562E+02	4.3737E+01
5.5610E+02	1.5983E+01
5.5658E+02	8.2266E+00
5.5706E+02	4.6030E+00
5.5754E+02	3.8254E+01
5.5803E+02	6.3851E+01
5.5851E+02	7.6363E+01
5.5899E+02	7.6007E+01
5.5947E+02	5.0017E+01
5.5995E+02	1.3061E+01
5.6044E+02	8.7083E+00
5.6092E+02	1.2283E+01
5.6140E+02	3.3801E+01
5.6188E+02	3.6839E+01
5.6237E+02	2.2102E+01
5.6285E+02	1.1654E+01
5.6333E+02	1.2811E+01
5.6381E+02	1.5547E+01
5.6429E+02	1.5252E+01
5.6478E+02	1.0733E+01
5.6526E+02	7.2883E+00
5.6574E+02	5.2927E+00
5.6622E+02	5.7551E+00
5.6670E+02	1.0487E+01
5.6719E+02	1.9898E+01
5.6767E+02	3.0126E+01
5.6815E+02	4.2815E+01
5.6863E+02	5.3322E+01
5.6911E+02	4.4370E+01
5.6960E+02	1.8547E+01
5.7008E+02	3.1008E+00
5.7056E+02	3.0508E+01
5.7104E+02	7.1203E+01
5.7153E+02	7.7097E+01
5.7201E+02	4.4971E+01
5.7249E+02	1.4877E+01
5.7297E+02	2.0833E+01
5.7345E+02	3.9818E+01
5.7394E+02	4.6497E+01
5.7442E+02	2.4764E+01
5.7490E+02	6.7993E+00
5.7538E+02	6.9871E+00
5.7586E+02	1.8428E+01
5.7635E+02	2.3293E+01
5.7683E+02	9.1633E+00
5.7731E+02	2.2329E+00
5.7779E+02	1.2045E+01
5.7828E+02	3.7180E+01
5.7876E+02	4.9695E+01
5.7924E+02	4.6859E+01
5.7972E+02	4.0574E+01
5.8020E+02	4.0082E+01
5.8069E+02	4.5247E+01
5.8117E+02	3.8242E+01
5.8165E+02	1.5882E+01
5.8213E+02	7.1699E+00
5.8261E+02	1.0635E+01
5.8310E+02	1.9922E-01
5.8358E+02	9.2275E+00
5.8406E+02	1.2333E+01
5.8454E+02	1.1227E+01
5.8502E+02	6.3525E+00
5.8551E+02	5.5005E-01
5.8599E+02	5.0303E+00
5.8647E+02	3.3801E+00
5.8695E+02	6.8848E-02
5.8744E+02	2.7202E+00
5.8792E+02	4.8599E+00
5.8840E+02	6.6301E+00
5.8888E+02	8.3330E+00
5.8936E+02	9.3423E+00
5.8985E+02	9.1316E+00
5.9033E+02	5.4478E+00
5.9081E+02	5.2654E+00
5.9129E+02	1.0581E+01
5.9177E+02	1.7296E+01
5.9226E+02	1.7233E+01
5.9274E+02	8.9500E+00
5.9322E+02	7.7708E+00
5.9370E+02	2.0924E+01
5.9419E+02	4.1301E+01
5.9467E+02	5.1115E+01
5.9515E+02	5.1068E+01
5.9563E+02	4.5572E+01
5.9611E+02	3.0772E+01
5.9660E+02	1.6378E+01
5.9708E+02	1.9024E+01
5.9756E+02	4.0250E+01
5.9804E+02	5.8837E+01
5.9852E+02	5.9289E+01
5.9901E+02	5.2288E+01
5.9949E+02	4.7713E+01
5.9997E+02	4.7997E+01
6.0045E+02	5.0420E+01
6.0093E+02	5.9810E+01
6.0142E+02	6.9734E+01
6.0190E+02	6.8289E+01
6.0238E+02	4.5217E+01
6.0286E+02	2.7411E+01
6.0335E+02	2.2869E+01
6.0383E+02	2.8884E+01
6.0431E+02	2.9270E+01
6.0479E+02	2.2258E+01
6.0527E+02	1.6988E+01
6.0576E+02	1.9808E+01
6.0624E+02	2.9153E+01
6.0672E+02	3.8075E+01
6.0720E+02	4.6643E+01
6.0768E+02	5.2862E+01
6.0817E+02	5.3003E+01
6.0865E+02	5.0120E+01
6.0913E+02	4.9409E+01
6.0961E+02	5.1914E+01
6.1009E+02	5.6686E+01
6.1058E+02	7.0120E+01
6.1106E+02	8.4803E+01
6.1154E+02	8.7770E+01
6.1202E+02	6.4041E+01
6.1251E+02	3.9713E+01
6.1299E+02	1.7508E+01
6.1347E+02	8.7915E-01
6.1395E+02	1.7627E-01
6.1443E+02	3.4800E+01
6.1492E+02	6.6046E+01
6.1540E+02	7.3066E+01
6.1588E+02	5.3254E+01
6.1636E+02	4.0879E+01
6.1684E+02	3.6858E+01
6.1733E+02	3.7620E+01
6.1781E+02	4.2259E+01
6.1829E+02	4.8797E+01
6.1877E+02	4.9774E+01
6.1926E+02	4.1614E+01
6.1974E+02	3.2399E+01
6.2022E+02	3.5214E+01
6.2070E+02	4.3658E+01
6.2118E+02	4.4151E+01
6.2167E+02	1.3741E+01
6.2215E+02	1.0357E+01
6.2263E+02	3.6523E-01
6.2311E+02	3.5843E+01
6.2359E+02	6.2474E+01
6.2408E+02	6.5391E+01
6.2456E+02	6.1356E+01
6.2504E+02	5.5273E+01
6.2552E+02	4.6248E+01
6.2600E+02	4.3564E+01
6.2649E+02	5.0173E+01
6.2697E+02	5.8540E+01
6.2745E+02	6.3281E+01
6.2793E+02	6.4351E+01
6.2842E+02	6.1610E+01
6.2890E+02	5.4676E+01
6.2938E+02	4.4354E+01
6.2986E+02	2.6766E+01
6.3034E+02	5.5264E+00
6.3083E+02	5.2061E+00
6.3131E+02	3.2275E+00
6.3179E+02	1.9336E+01
6.3227E+02	3.6528E+01
6.3275E+02	5.2389E+01
6.3324E+02	6.0178E+01
6.3372E+02	5.4108E+01
6.3420E+02	4.2135E+01
6.3468E+02	2.3679E+01
6.3516E+02	1.9541E+00
6.3565E+02	1.4251E+01
6.3613E+02	1.0750E+00
6.3661E+02	1.6455E+01
6.3709E+02	2.7468E+01
6.3758E+02	3.0185E+01
6.3806E+02	3.2421E+01
6.3854E+02	3.4390E+01
6.3902E+02	3.5606E+01
6.3950E+02	3.6464E+01
6.3999E+02	3.5740E+01
6.4047E+02	2.8121E+01
6.4095E+02	9.3428E+00
6.4143E+02	8.2769E+00
6.4191E+02	1.7156E+00
6.4240E+02	2.0996E+01
6.4288E+02	3.8347E+01
6.4336E+02	3.5241E+01
6.4384E+02	2.6732E+01
6.4433E+02	2.1948E+01
6.4481E+02	2.0992E+01
6.4529E+02	2.2493E+01
6.4577E+02	2.7058E+01
6.4625E+02	3.3189E+01
6.4674E+02	4.2854E+01
6.4722E+02	5.8872E+01
6.4770E+02	6.0021E+01
6.4818E+02	3.5647E+01
6.4866E+02	1.1570E+01
6.4915E+02	1.3033E+01
6.4963E+02	4.3147E+01
6.5011E+02	5.8535E+01
6.5059E+02	5.4013E+01
6.5107E+02	3.9122E+01
6.5156E+02	1.9052E+01
6.5204E+02	1.6719E+00
6.5252E+02	5.9280E+00
6.5300E+02	2.3140E+01
6.5349E+02	5.4487E+01
6.5397E+02	5.6810E+01
6.5445E+02	3.8474E+01
6.5493E+02	2.1585E+01
6.5541E+02	1.3305E+01
6.5590E+02	1.0159E+01
6.5638E+02	1.2635E+01
6.5686E+02	2.0532E+01
6.5734E+02	2.6972E+01
6.5782E+02	3.4906E+01
6.5831E+02	3.7162E+01
6.5879E+02	2.7090E+01
6.5927E+02	1.3406E+00
6.5975E+02	8.4902E+00
6.6024E+02	7.8833E-01
6.6072E+02	1.5384E+01
6.6120E+02	2.2547E+01
6.6168E+02	2.3737E+01
6.6216E+02	2.4806E+01
6.6265E+02	2.6565E+01
6.6313E+02	2.8721E+01
6.6361E+02	3.2731E+01
6.6409E+02	3.6641E+01
6.6457E+02	3.7146E+01
6.6506E+02	3.1465E+01
6.6554E+02	2.4061E+01
6.6602E+02	1.2371E+01
6.6650E+02	4.5654E-02
6.6698E+02	2.8528E+00
6.6747E+02	1.2817E+01
6.6795E+02	3.0192E+01
6.6843E+02	4.8386E+01
6.6891E+02	6.6473E+01
6.6940E+02	7.1697E+01
6.6988E+02	6.1628E+01
6.7036E+02	4.6759E+01
6.7084E+02	3.0568E+01
6.7132E+02	1.4143E+01
6.7181E+02	4.4966E+00
6.7229E+02	2.0049E+00
6.7277E+02	4.5530E+00
6.7325E+02	1.5129E+01
6.7373E+02	2.7993E+01
6.7422E+02	3.3475E+01
6.7470E+02	2.6850E+01
6.7518E+02	2.1954E+01
6.7566E+02	2.9788E+01
6.7614E+02	4.2130E+01
6.7663E+02	4.9237E+01
6.7711E+02	4.1809E+01
6.7759E+02	3.8312E+01
6.7807E+02	4.2468E+01
6.7856E+02	5.0994E+01
6.7904E+02	5.7303E+01
6.7952E+02	6.1525E+01
6.8000E+02	6.0948E+01
6.8048E+02	5.4134E+01
6.8097E+02	4.4265E+01
6.8145E+02	4.4409E+01
6.8193E+02	5.3683E+01
6.8241E+02	6.1303E+01
6.8289E+02	6.0315E+01
6.8338E+02	5.3858E+01
6.8386E+02	4.4114E+01
6.8434E+02	3.1462E+01
6.8482E+02	2.1318E+01
6.8531E+02	1.8095E+01
6.8579E+02	1.7336E+01
6.8627E+02	1.5744E+01
6.8675E+02	1.2055E+01
6.8723E+02	1.0379E+01
6.8772E+02	1.2032E+01
6.8820E+02	1.4702E+01
6.8868E+02	1.5485E+01
6.8916E+02	1.4076E+01
6.8964E+02	1.7229E+01
6.9013E+02	2.7368E+01
6.9061E+02	3.8350E+01
6.9109E+02	3.8184E+01
6.9157E+02	2.9255E+01
6.9205E+02	2.4289E+01
6.9254E+02	2.9403E+01
6.9302E+02	3.6469E+01
6.9350E+02	3.4213E+01
6.9398E+02	2.8118E+01
6.9447E+02	2.7217E+01
6.9495E+02	4.8743E+01
6.9543E+02	6.3322E+01
6.9591E+02	5.0340E+01
6.9639E+02	1.3612E+01
6.9688E+02	3.5530E+00
6.9736E+02	1.4132E+01
6.9784E+02	3.2276E+01
6.9832E+02	3.5972E+01
6.9880E+02	2.4974E+01
6.9929E+02	2.3775E+01
6.9977E+02	3.5069E+01
7.0025E+02	4.8276E+01
7.0073E+02	5.3934E+01
7.0122E+02	5.4184E+01
7.0170E+02	5.5013E+01
7.0218E+02	5.7055E+01
7.0266E+02	5.8184E+01
7.0314E+02	5.7880E+01
7.0363E+02	5.5082E+01
7.0411E+02	4.7995E+01
7.0459E+02	3.2890E+01
7.0507E+02	2.0363E+01
7.0555E+02	1.1802E+01
7.0604E+02	8.2429E+00
7.0652E+02	1.1708E+01
7.0700E+02	2.9783E+01
7.0748E+02	3.8944E+01
7.0796E+02	3.2952E+01
7.0845E+02	1.9405E+01
7.0893E+02	1.5434E+01
7.0941E+02	2.0972E+01
7.0989E+02	2.4709E+01
7.1038E+02	2.1041E+01
7.1086E+02	1.5389E+01
7.1134E+02	1.4542E+01
7.1182E+02	1.7764E+01
7.1230E+02	2.2367E+01
7.1279E+02	3.0551E+01
7.1327E+02	3.6618E+01
7.1375E+02	3.3314E+01
7.1423E+02	2.1316E+01
7.1471E+02	1.7482E+01
7.1520E+02	3.8382E+01
7.1568E+02	5.5093E+01
7.1616E+02	5.3511E+01
7.1664E+02	3.0574E+01
7.1712E+02	1.9066E+01
7.1761E+02	2.1188E+01
7.1809E+02	2.6944E+01
7.1857E+02	2.6738E+01
7.1905E+02	2.1624E+01
7.1954E+02	1.5313E+01
7.2002E+02	7.9299E+00
7.2050E+02	2.1289E+00
7.2098E+02	2.4187E+00
7.2146E+02	4.9858E+00
7.2195E+02	4.7153E+00
7.2243E+02	7.2119E-01
7.2291E+02	6.1282E+00
7.2339E+02	1.3736E+01
7.2387E+02	1.8613E+01
7.2436E+02	1.3535E+01
7.2484E+02	1.0048E+01
7.2532E+02	2.7974E+01
7.2580E+02	3.6131E+01
7.2629E+02	3.8093E+01
7.2677E+02	4.2895E+01
7.2725E+02	5.0610E+01
7.2773E+02	5.0029E+01
7.2821E+02	3.0959E+01
7.2870E+02	9.0898E+00
7.2918E+02	1.7108E+01
7.2966E+02	4.5832E+01
7.3014E+02	6.4135E+01
7.3062E+02	4.4630E+01
7.3111E+02	2.0112E+01
7.3159E+02	9.6433E+00
7.3207E+02	1.2496E+01
7.3255E+02	1.7298E+01
7.3303E+02	2.6902E+01
7.3352E+02	3.3443E+01
7.3400E+02	3.4039E+01
7.3448E+02	2.8805E+01
7.3496E+02	2.1596E+01
7.3545E+02	1.0706E+01
7.3593E+02	5.3306E+00
7.3641E+02	1.7382E+01
7.3689E+02	4.0515E+01
7.3737E+02	5.1344E+01
7.3786E+02	4.8821E+01
7.3834E+02	4.1829E+01
7.3882E+02	3.4253E+01
7.3930E+02	2.7444E+01
7.3978E+02	2.2197E+01
7.4027E+02	1.7703E+01
7.4075E+02	1.7981E+01
7.4123E+02	3.0140E+01
7.4171E+02	4.3793E+01
7.4219E+02	5.0805E+01
7.4268E+02	4.5362E+01
7.4316E+02	4.2568E+01
7.4364E+02	4.5740E+01
7.4412E+02	4.8435E+01
7.4461E+02	3.7946E+01
7.4509E+02	1.6741E+01
7.4557E+02	5.4460E+00
7.4605E+02	1.0131E+01
7.4653E+02	2.1395E+01
7.4702E+02	3.2427E+01
7.4750E+02	4.1604E+01
7.4798E+02	4.6108E+01
7.4846E+02	3.8863E+01
7.4894E+02	3.1568E+01
7.4943E+02	2.9271E+01
7.4991E+02	3.0207E+01
7.5039E+02	2.9733E+01
7.5087E+02	2.5483E+01
7.5136E+02	2.4735E+01
7.5184E+02	3.0805E+01
7.5232E+02	4.0899E+01
7.5280E+02	4.5828E+01
7.5328E+02	4.5715E+01
7.5377E+02	4.0190E+01
7.5425E+02	2.0989E+01
7.5473E+02	1.4321E+00
7.5521E+02	1.1598E+01
7.5569E+02	4.3726E+01
7.5618E+02	6.3462E+01
7.5666E+02	3.8055E+01
7.5714E+02	7.9697E+00
7.5762E+02	5.0962E+00
7.5810E+02	2.1970E-03
7.5859E+02	5.8059E+00
7.5907E+02	1.3269E+01
7.5955E+02	1.8479E+01
7.6003E+02	1.8224E+01
7.6052E+02	1.1360E+01
7.6100E+02	2.0097E+01
7.6148E+02	4.7508E+01
7.6196E+02	6.8403E+01
7.6244E+02	5.4749E+01
7.6293E+02	2.3521E+01
7.6341E+02	8.0872E+00
7.6389E+02	1.1360E+01
7.6437E+02	1.9222E+01
7.6485E+02	2.6523E+01
7.6534E+02	3.2487E+01
7.6582E+02	3.6406E+01
7.6630E+02	3.8057E+01
7.6678E+02	3.8145E+01
7.6727E+02	3.6419E+01
7.6775E+02	3.3239E+01
7.6823E+02	2.8040E+01
7.6871E+02	2.0188E+01
7.6919E+02	1.5821E+01
7.6968E+02	1.5648E+01
7.7016E+02	1.6968E+01
7.7064E+02	1.3448E+01
7.7112E+02	9.4597E+00
7.7160E+02	1.7648E+01
7.7209E+02	4.5920E+01
7.7257E+02	6.9369E+01
7.7305E+02	7.0344E+01
7.7353E+02	5.8172E+01
7.7401E+02	4.3824E+01
7.7450E+02	2.1532E+01
7.7498E+02	8.0632E+00
7.7546E+02	6.6089E+00
7.7594E+02	1.2704E+01
7.7643E+02	2.1819E+01
7.7691E+02	3.4873E+01
7.7739E+02	4.0768E+01
7.7787E+02	3.4594E+01
7.7835E+02	2.6418E+01
7.7884E+02	3.7829E+01
7.7932E+02	6.0607E+01
7.7980E+02	7.1835E+01
7.8028E+02	5.4855E+01
7.8076E+02	3.4138E+01
7.8125E+02	2.3708E+01
7.8173E+02	2.0349E+01
7.8221E+02	1.7307E+01
7.8269E+02	1.0698E+01
7.8317E+02	7.8140E+00
7.8366E+02	1.0334E+01
7.8414E+02	1.6979E+01
7.8462E+02	2.6145E+01
7.8510E+02	3.8494E+01
7.8559E+02	4.6348E+01
7.8607E+02	4.3635E+01
7.8655E+02	3.4944E+01
7.8703E+02	2.8451E+01
7.8751E+02	2.4954E+01
7.8800E+02	2.7074E+01
7.8848E+02	4.3573E+01
7.8896E+02	5.8931E+01
7.8944E+02	6.5312E+01
7.8992E+02	6.3131E+01
7.9041E+02	5.5747E+01
7.9089E+02	3.9781E+01
7.9137E+02	2.4733E+01
7.9185E+02	1.1845E+01
7.9234E+02	2.0552E+00
7.9282E+02	4.1079E+00
7.9330E+02	1.9449E+01
7.9378E+02	3.1163E+01
7.9426E+02	2.4879E+01
7.9475E+02	1.1747E+01
7.9523E+02	1.1323E+01
7.9571E+02	2.1587E+01
7.9619E+02	3.0264E+01
7.9667E+02	2.9312E+01
7.9716E+02	2.6541E+01
7.9764E+02	2.8548E+01
7.9812E+02	3.5747E+01
7.9860E+02	3.0945E+01
7.9908E+02	1.7678E+00
7.9957E+02	1.8024E+01
8.0005E+02	7.2983E+00
8.0053E+02	2.9533E+01
8.0101E+02	4.6801E+01
8.0150E+02	4.4379E+01
8.0198E+02	3.6886E+01
8.0246E+02	3.4302E+01
8.0294E+02	3.2919E+01
8.0342E+02	2.7769E+01
8.0391E+02	1.9303E+01
8.0439E+02	1.0553E+01
8.0487E+02	4.4190E-01
8.0535E+02	7.5186E+00
8.0583E+02	5.4541E+00
8.0632E+02	6.3135E+00
8.0680E+02	1.7599E+01
8.0728E+02	2.9777E+01
8.0776E+02	3.8338E+01
8.0824E+02	3.8525E+01
8.0873E+02	3.1874E+01
8.0921E+02	2.6831E+01
8.0969E+02	2.3632E+01
8.1017E+02	2.5690E+01
8.1066E+02	4.2970E+01
8.1114E+02	6.2345E+01
8.1162E+02	6.7958E+01
8.1210E+02	5.6383E+01
8.1258E+02	4.9136E+01
8.1307E+02	6.1695E+01
8.1355E+02	7.2400E+01
8.1403E+02	6.6077E+01
8.1451E+02	3.7967E+01
8.1499E+02	2.9299E+01
8.1548E+02	4.5608E+01
8.1596E+02	5.9767E+01
8.1644E+02	4.0750E+01
8.1692E+02	1.8418E+00
8.1741E+02	1.6953E+01
8.1789E+02	1.2782E+01
8.1837E+02	2.8667E+00
8.1885E+02	4.2349E+00
8.1933E+02	1.0014E+01
8.1982E+02	1.5497E+01
8.2030E+02	2.0564E+01
8.2078E+02	2.6234E+01
8.2126E+02	3.3140E+01
8.2174E+02	3.9797E+01
8.2223E+02	4.5858E+01
8.2271E+02	5.1198E+01
8.2319E+02	5.0214E+01
8.2367E+02	4.1511E+01
8.2415E+02	3.5243E+01
8.2464E+02	4.5975E+01
8.2512E+02	6.2959E+01
8.2560E+02	6.7971E+01
8.2608E+02	5.7579E+01
8.2657E+02	4.9115E+01
8.2705E+02	5.4390E+01
8.2753E+02	6.2453E+01
8.2801E+02	6.4947E+01
8.2849E+02	5.9901E+01
8.2898E+02	5.7570E+01
8.2946E+02	6.0813E+01
8.2994E+02	6.1209E+01
8.3042E+02	4.7399E+01
8.3090E+02	2.3345E+01
8.3139E+02	1.2718E+01
8.3187E+02	1.7455E+01
8.3235E+02	2.3829E+01
8.3283E+02	1.6487E+01
8.3332E+02	6.9785E+00
8.3380E+02	9.0200E+00
8.3428E+02	2.8066E+01
8.3476E+02	4.0117E+01
8.3524E+02	3.3811E+01
8.3573E+02	2.4119E+01
8.3621E+02	1.8874E+01
8.3669E+02	1.8328E+01
8.3717E+02	2.1145E+01
8.3765E+02	2.8140E+01
8.3814E+02	3.4395E+01
8.3862E+02	3.0837E+01
8.3910E+02	2.4475E+01
8.3958E+02	3.4333E+01
8.4006E+02	6.3058E+01
8.4055E+02	8.3777E+01
8.4103E+02	7.9154E+01
8.4151E+02	6.2405E+01
8.4199E+02	3.9069E+01
8.4248E+02	4.5244E+00
8.4296E+02	1.2767E+01
8.4344E+02	1.1560E+01
8.4392E+02	4.4507E+00
8.4440E+02	4.3634E+01
8.4489E+02	1.0054E+02
8.4537E+02	1.1833E+02
8.4585E+02	9.5467E+01
8.4633E+02	6.8318E+01
8.4681E+02	7.0605E+01
8.4730E+02	8.0182E+01
8.4778E+02	7.0776E+01
8.4826E+02	3.8266E+01
8.4874E+02	1.4478E+01
8.4922E+02	1.7710E+01
8.4971E+02	2.2774E+01
8.5019E+02	1.4697E+01
8.5067E+02	7.8677E+00
8.5115E+02	7.2847E+00
8.5164E+02	2.0718E+01
8.5212E+02	4.6416E+01
8.5260E+02	4.5021E+01
8.5308E+02	2.8176E+01
8.5356E+02	1.7729E+01
8.5405E+02	1.4243E+01
8.5453E+02	1.3359E+01
8.5501E+02	1.1633E+01
8.5549E+02	1.2645E+01
8.5597E+02	1.9069E+01
8.5646E+02	3.1229E+01
8.5694E+02	4.6308E+01
8.5742E+02	6.5438E+01
8.5790E+02	8.0199E+01
8.5839E+02	8.4202E+01
8.5887E+02	7.8316E+01
8.5935E+02	7.2177E+01
8.5983E+02	6.5403E+01
8.6031E+02	5.3842E+01
8.6080E+02	2.0828E+01
8.6128E+02	7.0552E+00
8.6176E+02	1.2500E-01
8.6224E+02	3.7731E+01
8.6272E+02	6.3743E+01
8.6321E+02	5.6000E+01
8.6369E+02	4.9569E+01
8.6417E+02	5.6296E+01
8.6465E+02	7.2398E+01
8.6513E+02	7.7112E+01
8.6562E+02	6.9686E+01
8.6610E+02	6.5823E+01
8.6658E+02	8.0668E+01
8.6706E+02	9.8031E+01
8.6755E+02	9.1232E+01
8.6803E+02	6.6836E+01
8.6851E+02	4.7073E+01
8.6899E+02	4.1994E+01
8.6947E+02	4.2523E+01
8.6996E+02	4.9693E+01
8.7044E+02	6.0065E+01
8.7092E+02	6.1374E+01
8.7140E+02	5.0628E+01
8.7188E+02	4.4674E+01
8.7237E+02	5.0707E+01
8.7285E+02	6.1548E+01
8.7333E+02	6.1870E+01
8.7381E+02	5.4351E+01
8.7429E+02	4.7447E+01
8.7478E+02	4.3190E+01
8.7526E+02	4.1183E+01
8.7574E+02	4.5474E+01
8.7622E+02	5.3476E+01
8.7671E+02	5.7997E+01
8.7719E+02	5.5411E+01
8.7767E+02	5.5242E+01
8.7815E+02	6.0344E+01
8.7863E+02	6.5761E+01
8.7912E+02	5.8668E+01
8.7960E+02	4.2741E+01
8.8008E+02	4.1047E+01
8.8056E+02	6.3992E+01
8.8104E+02	8.7548E+01
8.8153E+02	8.9321E+01
8.8201E+02	7.9859E+01
8.8249E+02	7.3933E+01
8.8297E+02	8.0312E+01
8.8346E+02	8.2739E+01
8.8394E+02	7.7024E+01
8.8442E+02	7.0248E+01
8.8490E+02	7.3999E+01
8.8538E+02	8.8563E+01
8.8587E+02	8.5861E+01
8.8635E+02	5.9258E+01
8.8683E+02	3.5313E+01
8.8731E+02	5.2131E+01
8.8779E+02	8.4304E+01
8.8828E+02	9.5913E+01
8.8876E+02	7.4407E+01
8.8924E+02	5.4328E+01
8.8972E+02	4.0360E+01
8.9020E+02	3.6106E+01
8.9069E+02	4.6771E+01
8.9117E+02	7.6550E+01
8.9165E+02	9.4720E+01
8.9213E+02	1.0073E+02
8.9262E+02	9.6568E+01
8.9310E+02	7.1983E+01
8.9358E+02	4.2588E+01
8.9406E+02	4.2550E+01
8.9454E+02	7.3424E+01
8.9503E+02	9.0458E+01
8.9551E+02	5.2084E+01
8.9599E+02	1.1724E+01
8.9647E+02	4.1548E+00
8.9695E+02	2.9960E+01
8.9744E+02	4.6232E+01
8.9792E+02	5.3185E+01
8.9840E+02	5.3216E+01
8.9888E+02	4.3587E+01
8.9937E+02	2.9499E+01
8.9985E+02	2.4678E+01
9.0033E+02	2.7927E+01
9.0081E+02	3.1836E+01
9.0129E+02	3.6199E+01
9.0178E+02	3.9164E+01
9.0226E+02	3.5537E+01
9.0274E+02	2.7373E+01
9.0322E+02	2.5821E+01
9.0370E+02	3.0721E+01
9.0419E+02	4.3144E+01
9.0467E+02	6.8033E+01
9.0515E+02	9.4789E+01
9.0563E+02	9.6910E+01
9.0611E+02	7.9276E+01
9.0660E+02	6.2877E+01
9.0708E+02	5.4711E+01
9.0756E+02	5.2575E+01
9.0804E+02	6.0292E+01
9.0853E+02	7.1119E+01
9.0901E+02	7.4981E+01
9.0949E+02	6.6706E+01
9.0997E+02	6.0537E+01
9.1045E+02	5.8417E+01
9.1094E+02	5.7269E+01
9.1142E+02	5.2921E+01
9.1190E+02	4.5855E+01
9.1238E+02	3.8896E+01
9.1286E+02	3.3105E+01
9.1335E+02	2.4423E+01
9.1383E+02	2.8921E+00
9.1431E+02	1.9736E+01
9.1479E+02	3.1365E+01
9.1527E+02	2.8427E+01
9.1576E+02	1.5629E+01
9.1624E+02	1.2783E+01
9.1672E+02	4.1014E+01
9.1720E+02	5.7986E+01
9.1769E+02	6.3978E+01
9.1817E+02	5.5512E+01
9.1865E+02	3.2308E+01
9.1913E+02	1.5248E+01
9.1961E+02	2.9849E+01
9.2010E+02	5.3198E+01
9.2058E+02	6.4993E+01
9.2106E+02	6.3309E+01
9.2154E+02	6.1577E+01
9.2202E+02	6.3477E+01
9.2251E+02	6.2780E+01
9.2299E+02	5.4657E+01
9.2347E+02	4.1810E+01
9.2395E+02	4.2360E+01
9.2444E+02	5.5141E+01
9.2492E+02	6.4878E+01
9.2540E+02	6.2105E+01
9.2588E+02	5.3657E+01
9.2636E+02	4.2976E+01
9.2685E+02	3.3273E+01
9.2733E+02	2.5949E+01
9.2781E+02	2.8441E+01
9.2829E+02	2.8510E+01
9.2877E+02	2.2337E+01
9.2926E+02	1.4547E+01
9.2974E+02	1.5260E+01
9.3022E+02	2.4114E+01
9.3070E+02	3.5256E+01
9.3118E+02	4.9005E+01
9.3167E+02	5.9180E+01
9.3215E+02	6.0379E+01
9.3263E+02	5.5051E+01
9.3311E+02	4.6030E+01
9.3360E+02	3.0103E+01
9.3408E+02	1.7314E+01
9.3456E+02	4.6206E+00
9.3504E+02	4.9268E-01
9.3552E+02	1.7326E+01
9.3601E+02	5.5821E+01
9.3649E+02	5.9463E+01
9.3697E+02	2.3110E+01
9.3745E+02	1.1483E+01
9.3793E+02	9.3921E+00
9.3842E+02	1.3248E+01
9.3890E+02	5.0010E+01
9.3938E+02	1.0182E+02
9.3986E+02	1.2432E+02
9.4034E+02	9.1316E+01
9.4083E+02	5.8102E+01
9.4131E+02	4.8178E+01
9.4179E+02	5.7325E+01
9.4227E+02	6.1846E+01
9.4276E+02	6.1707E+01
9.4324E+02	5.9803E+01
9.4372E+02	5.8400E+01
9.4420E+02	5.4634E+01
9.4468E+02	4.3105E+01
9.4517E+02	2.7369E+01
9.4565E+02	1.7042E+01
9.4613E+02	1.8697E+01
9.4661E+02	1.8482E+01
9.4709E+02	1.2130E+01
9.4758E+02	5.6514E+00
9.4806E+02	1.3842E+01
9.4854E+02	3.4336E+01
9.4902E+02	4.6535E+01
9.4951E+02	4.4010E+01
9.4999E+02	3.7010E+01
9.5047E+02	3.0708E+01
9.5095E+02	2.6775E+01
9.5143E+02	2.7312E+01
9.5192E+02	3.5230E+01
9.5240E+02	4.3238E+01
9.5288E+02	5.2659E+01
9.5336E+02	5.9874E+01
9.5384E+02	6.3189E+01
9.5433E+02	6.2050E+01
9.5481E+02	4.7387E+01
9.5529E+02	1.9523E+01
9.5577E+02	4.1650E-01
9.5625E+02	1.2340E+01
9.5674E+02	3.0595E+01
9.5722E+02	3.2008E+01
9.5770E+02	1.6342E+01
9.5818E+02	7.7085E+00
9.5867E+02	7.7632E+00
9.5915E+02	1.3640E+01
9.5963E+02	2.7766E+01
9.6011E+02	4.3861E+01
9.6059E+02	4.0600E+01
9.6108E+02	2.3656E+01
9.6156E+02	1.5357E+01
9.6204E+02	3.2726E+01
9.6252E+02	5.2194E+01
9.6300E+02	6.1406E+01
9.6349E+02	6.5249E+01
9.6397E+02	7.1306E+01
9.6445E+02	7.8950E+01
9.6493E+02	8.3299E+01
9.6542E+02	8.8334E+01
9.6590E+02	8.7435E+01
9.6638E+02	6.1979E+01
9.6686E+02	2.5465E+01
9.6734E+02	1.5310E+01
9.6783E+02	3.9623E+01
9.6831E+02	5.7797E+01
9.6879E+02	3.9799E+01
9.6927E+02	1.6045E+01
9.6975E+02	5.1187E+00
9.7024E+02	7.2764E+00
9.7072E+02	2.4602E+01
9.7120E+02	6.1058E+01
9.7168E+02	9.1374E+01
9.7216E+02	9.6124E+01
9.7265E+02	8.7264E+01
9.7313E+02	8.2997E+01
9.7361E+02	8.3892E+01
9.7409E+02	8.9568E+01
9.7458E+02	1.0912E+02
9.7506E+02	1.2038E+02
9.7554E+02	1.1287E+02
9.7602E+02	9.4511E+01
9.7650E+02	7.8364E+01
9.7699E+02	6.4051E+01
9.7747E+02	5.4140E+01
9.7795E+02	4.8845E+01
9.7843E+02	5.0440E+01
9.7891E+02	7.2387E+01
9.7940E+02	9.7745E+01
9.7988E+02	1.0027E+02
9.8036E+02	6.3036E+01
9.8084E+02	4.1531E+01
9.8132E+02	5.1983E+01
9.8181E+02	7.0330E+01
9.8229E+02	8.8047E+01
9.8277E+02	1.0402E+02
9.8325E+02	7.9929E+01
9.8374E+02	1.7992E+01
9.8422E+02	2.4503E+01
9.8470E+02	9.5039E+00
9.8518E+02	6.3840E+01
9.8566E+02	1.0120E+02
9.8615E+02	1.1935E+02
9.8663E+02	1.1443E+02
9.8711E+02	7.2336E+01
9.8759E+02	3.5413E+01
9.8807E+02	9.8062E+00
9.8856E+02	2.3901E+00
9.8904E+02	1.1676E+01
9.8952E+02	4.3826E+01
9.9000E+02	6.3984E+01
9.9049E+02	5.9501E+01
9.9097E+02	5.2251E+01
9.9145E+02	5.4393E+01
9.9193E+02	6.1309E+01
9.9241E+02	7.0797E+01
9.9290E+02	8.9942E+01
9.9338E+02	8.1176E+01
9.9386E+02	3.6674E+01
9.9434E+02	2.9277E+00
9.9482E+02	7.1216E+00
9.9531E+02	3.9539E+01
9.9579E+02	4.1569E+01
9.9627E+02	1.6014E+01
9.9675E+02	2.3496E+00
9.9723E+02	1.0882E+01
9.9772E+02	2.5279E+01
9.9820E+02	2.9768E+01
9.9868E+02	2.6297E+01
9.9916E+02	2.0658E+01
9.9965E+02	1.2629E+01
1.0001E+03	8.8735E+00
1.0006E+03	1.0753E+01
1.0011E+03	1.9051E+01
1.0016E+03	4.2216E+01
1.0021E+03	6.9609E+01
1.0025E+03	8.4916E+01
1.0030E+03	7.5639E+01
1.0035E+03	7.1451E+01
1.0040E+03	7.6323E+01
1.0045E+03	8.4515E+01
1.0049E+03	9.4519E+01
1.0054E+03	1.0469E+02
1.0059E+03	9.8006E+01
1.0064E+03	7.5048E+01
1.0069E+03	5.3446E+01
1.0074E+03	4.3652E+01
1.0078E+03	4.0434E+01
1.0083E+03	3.7243E+01
1.0088E+03	3.6927E+01
1.0093E+03	5.6954E+01
1.0098E+03	1.0688E+02
1.0103E+03	1.4271E+02
1.0107E+03	1.4571E+02
1.0112E+03	1.4022E+02
1.0117E+03	1.8767E+02
1.0122E+03	2.5623E+02
1.0127E+03	2.6971E+02
1.0131E+03	1.7992E+02
1.0136E+03	9.5563E+01
1.0141E+03	4.8412E+01
1.0146E+03	2.9444E+01
1.0151E+03	3.8266E+01
1.0156E+03	8.0714E+01
1.0160E+03	9.9694E+01
1.0165E+03	9.4377E+01
1.0170E+03	8.2718E+01
1.0175E+03	8.0648E+01
1.0180E+03	7.7748E+01
1.0184E+03	5.9691E+01
1.0189E+03	2.9246E+01
1.0194E+03	5.2861E+00
1.0199E+03	3.4043E+00
1.0204E+03	1.4486E+01
1.0209E+03	3.6474E+01
1.0213E+03	5.6956E+01
1.0218E+03	4.2729E+01
1.0223E+03	3.1992E+00
1.0228E+03	2.2293E+01
1.0233E+03	2.0738E+01
1.0238E+03	1.4019E+01
1.0242E+03	1.0495E+01
1.0247E+03	1.1840E+01
1.0252E+03	2.0607E+01
1.0257E+03	3.8039E+01
1.0262E+03	5.5607E+01
1.0266E+03	7.3653E+01
1.0271E+03	8.6103E+01
1.0276E+03	7.9952E+01
1.0281E+03	6.9666E+01
1.0286E+03	8.3810E+01
1.0291E+03	1.1559E+02
1.0295E+03	1.3792E+02
1.0300E+03	1.3229E+02
1.0305E+03	1.2684E+02
1.0310E+03	1.3242E+02
1.0315E+03	1.3796E+02
1.0319E+03	1.1961E+02
1.0324E+03	8.3467E+01
1.0329E+03	5.1884E+01
1.0334E+03	2.7357E+01
1.0339E+03	2.1831E+01
1.0344E+03	7.1912E+01
1.0348E+03	1.2691E+02
1.0353E+03	1.3550E+02
1.0358E+03	8.5669E+01
1.0363E+03	5.5115E+01
1.0368E+03	4.8706E+01
1.0373E+03	5.0031E+01
1.0377E+03	5.3917E+01
1.0382E+03	5.6816E+01
1.0387E+03	4.9350E+01
1.0392E+03	3.4732E+01
1.0397E+03	2.3223E+01
1.0401E+03	1.5667E+01
1.0406E+03	1.5628E+01
1.0411E+03	2.9049E+01
1.0416E+03	4.5306E+01
1.0421E+03	4.7425E+01
1.0426E+03	3.9005E+01
1.0430E+03	4.2428E+01
1.0435E+03	6.0673E+01
1.0440E+03	7.8513E+01
1.0445E+03	8.4899E+01
1.0450E+03	8.2510E+01
1.0454E+03	7.0717E+01
1.0459E+03	4.9800E+01
1.0464E+03	3.6164E+01
1.0469E+03	3.2633E+01
1.0474E+03	3.1396E+01
1.0479E+03	2.7865E+01
1.0483E+03	2.6791E+01
1.0488E+03	4.1960E+01
1.0493E+03	6.7470E+01
1.0498E+03	8.9284E+01
1.0503E+03	1.0628E+02
1.0508E+03	1.1092E+02
1.0512E+03	8.8063E+01
1.0517E+03	6.1280E+01
1.0522E+03	4.9470E+01
1.0527E+03	5.4281E+01
1.0532E+03	6.5417E+01
1.0536E+03	8.5185E+01
1.0541E+03	9.4918E+01
1.0546E+03	7.0800E+01
1.0551E+03	4.0807E+01
1.0556E+03	2.6482E+01
1.0561E+03	2.7303E+01
1.0565E+03	3.5830E+01
1.0570E+03	5.4513E+01
1.0575E+03	7.4253E+01
1.0580E+03	9.7040E+01
1.0585E+03	1.1140E+02
1.0589E+03	8.3960E+01
1.0594E+03	3.7717E+01
1.0599E+03	2.9335E+01
1.0604E+03	7.9892E+01
1.0609E+03	1.1573E+02
1.0614E+03	9.2427E+01
1.0618E+03	6.1474E+01
1.0623E+03	4.9684E+01
1.0628E+03	5.5334E+01
1.0633E+03	5.5988E+01
1.0638E+03	5.2389E+01
1.0642E+03	5.7650E+01
1.0647E+03	8.3188E+01
1.0652E+03	1.1546E+02
1.0657E+03	1.5164E+02
1.0662E+03	1.8504E+02
1.0667E+03	2.0276E+02
1.0671E+03	2.0474E+02
1.0676E+03	1.8770E+02
1.0681E+03	1.4511E+02
1.0686E+03	1.0489E+02
1.0691E+03	1.0329E+02
1.0696E+03	1.2047E+02
1.0700E+03	1.1725E+02
1.0705E+03	9.3691E+01
1.0710E+03	8.8074E+01
1.0715E+03	1.4613E+02
1.0720E+03	1.8315E+02
1.0724E+03	1.6592E+02
1.0729E+03	1.1874E+02
1.0734E+03	1.0932E+02
1.0739E+03	1.2945E+02
1.0744E+03	1.2981E+02
1.0749E+03	9.0825E+01
1.0753E+03	5.1957E+01
1.0758E+03	4.1317E+01
1.0763E+03	4.2845E+01
1.0768E+03	3.9453E+01
1.0773E+03	2.7188E+01
1.0777E+03	4.4948E+01
1.0782E+03	9.9046E+01
1.0787E+03	1.3230E+02
1.0792E+03	8.7432E+01
1.0797E+03	2.0309E+01
1.0802E+03	6.3984E+00
1.0806E+03	2.8021E+01
1.0811E+03	4.6458E+01
1.0816E+03	4.0278E+01
1.0821E+03	4.8030E+01
1.0826E+03	8.0271E+01
1.0831E+03	1.1343E+02
1.0835E+03	1.1380E+02
1.0840E+03	9.2370E+01
1.0845E+03	8.5808E+01
1.0850E+03	9.7044E+01
1.0855E+03	1.0103E+02
1.0859E+03	6.8102E+01
1.0864E+03	4.2117E+01
1.0869E+03	4.6616E+01
1.0874E+03	7.3225E+01
1.0879E+03	1.0193E+02
1.0884E+03	1.3208E+02
1.0888E+03	1.1940E+02
1.0893E+03	3.2288E+01
1.0898E+03	4.6895E+01
1.0903E+03	3.0385E+01
1.0908E+03	2.8647E+01
1.0912E+03	7.6149E+01
1.0917E+03	1.1220E+02
1.0922E+03	1.0248E+02
1.0927E+03	3.1799E+01
1.0932E+03	2.4132E+01
1.0937E+03	6.2881E+00
1.0941E+03	4.7715E+01
1.0946E+03	7.6164E+01
1.0951E+03	8.4976E+01
1.0956E+03	8.8324E+01
1.0961E+03	9.4114E+01
1.0966E+03	8.8576E+01
1.0970E+03	6.3429E+01
1.0975E+03	3.6234E+01
1.0980E+03	2.4372E+01
1.0985E+03	2.7819E+01
1.0990E+03	5.4420E+01
1.0994E+03	1.0299E+02
1.0999E+03	1.3771E+02
1.1004E+03	1.3035E+02
1.1009E+03	1.0883E+02
1.1014E+03	7.4400E+01
1.1019E+03	3.9804E+01
1.1023E+03	5.4492E+01
1.1028E+03	1.1784E+02
1.1033E+03	1.4483E+02
1.1038E+03	1.0692E+02
1.1043E+03	5.7120E+01
1.1047E+03	4.0585E+01
1.1052E+03	4.2401E+01
1.1057E+03	5.2630E+01
1.1062E+03	7.4013E+01
1.1067E+03	6.7975E+01
1.1072E+03	2.5313E+01
1.1076E+03	3.6504E+00
1.1081E+03	2.0059E+01
1.1086E+03	5.9498E+01
1.1091E+03	3.7706E+01
1.1096E+03	1.5058E+01
1.1101E+03	3.5025E+01
1.1105E+03	2.9433E+01
1.1110E+03	7.9921E+01
1.1115E+03	1.0402E+02
1.1120E+03	1.1794E+02
1.1125E+03	1.3913E+02
1.1129E+03	1.6366E+02
1.1134E+03	1.7486E+02
1.1139E+03	1.7319E+02
1.1144E+03	1.6677E+02
1.1149E+03	1.5061E+02
1.1154E+03	1.4103E+02
1.1158E+03	1.5160E+02
1.1163E+03	1.6806E+02
1.1168E+03	1.6312E+02
1.1173E+03	1.3824E+02
1.1178E+03	1.1233E+02
1.1182E+03	8.7452E+01
1.1187E+03	7.5102E+01
1.1192E+03	1.0645E+02
1.1197E+03	1.3637E+02
1.1202E+03	1.1890E+02
1.1207E+03	5.9708E+01
1.1211E+03	2.7896E+01
1.1216E+03	2.6159E+01
1.1221E+03	3.1884E+01
1.1226E+03	3.9780E+01
1.1231E+03	4.6956E+01
1.1235E+03	4.7256E+01
1.1240E+03	4.5669E+01
1.1245E+03	4.9168E+01
1.1250E+03	6.2037E+01
1.1255E+03	7.1304E+01
1.1260E+03	7.3947E+01
1.1264E+03	8.0673E+01
1.1269E+03	1.0938E+02
1.1274E+03	1.4053E+02
1.1279E+03	1.1757E+02
1.1284E+03	6.1060E+01
1.1289E+03	2.8175E+01
1.1293E+03	7.1867E+01
1.1298E+03	9.2604E+01
1.1303E+03	5.8632E+01
1.1308E+03	2.5282E+01
1.1313E+03	7.2226E+01
1.1317E+03	1.7037E+02
1.1322E+03	1.9270E+02
1.1327E+03	1.3918E+02
1.1332E+03	8.6956E+01
1.1337E+03	7.9032E+01
1.1342E+03	8.2376E+01
1.1346E+03	8.8244E+01
1.1351E+03	9.3974E+01
1.1356E+03	8.8832E+01
1.1361E+03	7.5305E+01
1.1366E+03	8.7688E+01
1.1370E+03	1.3585E+02
1.1375E+03	1.7010E+02
1.1380E+03	1.3488E+02
1.1385E+03	8.4849E+01
1.1390E+03	5.8471E+01
1.1395E+03	5.5070E+01
1.1399E+03	7.6286E+01
1.1404E+03	1.2553E+02
1.1409E+03	1.5587E+02
1.1414E+03	1.4924E+02
1.1419E+03	1.2476E+02
1.1424E+03	8.6118E+01
1.1428E+03	5.1263E+01
1.1433E+03	4.5487E+01
1.1438E+03	8.0508E+01
1.1443E+03	1.0662E+02
1.1448E+03	1.2544E+02
1.1452E+03	1.2824E+02
1.1457E+03	9.8201E+01
1.1462E+03	5.9911E+01
1.1467E+03	5.3060E+01
1.1472E+03	6.5874E+01
1.1477E+03	7.1234E+01
1.1481E+03	6.3279E+01
1.1486E+03	5.6568E+01
1.1491E+03	4.9206E+01
1.1496E+03	4.1808E+01
1.1501E+03	2.9848E+01
1.1505E+03	1.8951E+01
1.1510E+03	2.6063E+01
1.1515E+03	4.9874E+01
1.1520E+03	6.8749E+01
1.1525E+03	6.8326E+01
1.1530E+03	6.8518E+01
1.1534E+03	7.2153E+01
1.1539E+03	7.9938E+01
1.1544E+03	1.0130E+02
1.1549E+03	1.2814E+02
1.1554E+03	1.2749E+02
1.1559E+03	9.6570E+01
1.1563E+03	6.5040E+01
1.1568E+03	3.6242E+01
1.1573E+03	2.4938E+01
1.1578E+03	4.7633E+01
1.1583E+03	8.3765E+01
1.1587E+03	6.8634E+01
1.1592E+03	1.3231E+01
1.1597E+03	5.2139E+00
1.1602E+03	3.6845E+01
1.1607E+03	8.1421E+01
1.1612E+03	9.7149E+01
1.1616E+03	9.3307E+01
1.1621E+03	6.9430E+01
1.1626E+03	3.1176E+01
1.1631E+03	2.2231E+01
1.1636E+03	4.1262E+01
1.1640E+03	5.6082E+01
1.1645E+03	5.4260E+01
1.1650E+03	4.4619E+01
1.1655E+03	2.9512E+01
1.1660E+03	1.3539E+01
1.1665E+03	1.1279E+00
1.1669E+03	7.6582E+00
1.1674E+03	1.9230E+01
1.1679E+03	3.4596E+01
1.1684E+03	3.7993E+01
1.1689E+03	2.1492E+01
1.1694E+03	5.2725E+00
1.1698E+03	4.3013E+01
1.1703E+03	8.0905E+01
1.1708E+03	9.7029E+01
1.1713E+03	7.9221E+01
1.1718E+03	7.7280E+01
1.1722E+03	9.3736E+01
1.1727E+03	1.1528E+02
1.1732E+03	1.4181E+02
1.1737E+03	1.6141E+02
1.1742E+03	1.5247E+02
1.1747E+03	1.2419E+02
1.1751E+03	1.0770E+02
1.1756E+03	1.0854E+02
1.1761E+03	1.1403E+02
1.1766E+03	1.2525E+02
1.1771E+03	1.3640E+02
1.1775E+03	1.3963E+02
1.1780E+03	1.3860E+02
1.1785E+03	1.4241E+02
1.1790E+03	1.5099E+02
1.1795E+03	1.5297E+02
1.1800E+03	1.4457E+02
1.1804E+03	1.3323E+02
1.1809E+03	1.1725E+02
1.1814E+03	1.0768E+02
1.1819E+03	1.2679E+02
1.1824E+03	1.5732E+02
1.1829E+03	1.7512E+02
1.1833E+03	1.7662E+02
1.1838E+03	1.7418E+02
1.1843E+03	1.6847E+02
1.1848E+03	1.6113E+02
1.1853E+03	1.5035E+02
1.1857E+03	1.4303E+02
1.1862E+03	1.5461E+02
1.1867E+03	1.7463E+02
1.1872E+03	1.9179E+02
1.1877E+03	2.0719E+02
1.1882E+03	2.0120E+02
1.1886E+03	1.5250E+02
1.1891E+03	1.1082E+02
1.1896E+03	1.0209E+02
1.1901E+03	1.1390E+02
1.1906E+03	1.1537E+02
1.1910E+03	1.0820E+02
1.1915E+03	9.5127E+01
1.1920E+03	6.3598E+01
1.1925E+03	6.0723E+01
1.1930E+03	1.2807E+02
1.1935E+03	1.8060E+02
1.1939E+03	1.4608E+02
1.1944E+03	5.6236E+01
1.1949E+03	3.9887E+01
1.1954E+03	7.9714E+01
1.1959E+03	1.1330E+02
1.1963E+03	1.0852E+02
1.1968E+03	1.0004E+02
1.1973E+03	9.7328E+01
1.1978E+03	9.3938E+01
1.1983E+03	7.8399E+01
1.1988E+03	5.6642E+01
1.1992E+03	6.4472E+01
1.1997E+03	9.5522E+01
1.2002E+03	1.1625E+02
1.2007E+03	9.7697E+01
1.2012E+03	8.1526E+01
1.2017E+03	8.1865E+01
1.2021E+03	8.6779E+01
1.2026E+03	8.2224E+01
1.2031E+03	6.9943E+01
1.2036E+03	6.0616E+01
1.2041E+03	5.4614E+01
1.2045E+03	4.7729E+01
1.2050E+03	3.2670E+01
1.2055E+03	2.4329E+01
1.2060E+03	3.0496E+01
1.2065E+03	4.3233E+01
1.2070E+03	5.0795E+01
1.2074E+03	5.3761E+01
1.2079E+03	5.6699E+01
1.2084E+03	5.9588E+01
1.2089E+03	5.8119E+01
1.2094E+03	4.0328E+01
1.2098E+03	2.8762E+01
1.2103E+03	3.4531E+01
1.2108E+03	4.9465E+01
1.2113E+03	5.6514E+01
1.2118E+03	5.6799E+01
1.2123E+03	5.3871E+01
1.2127E+03	4.8771E+01
1.2132E+03	4.0014E+01
1.2137E+03	9.5234E+00
1.2142E+03	3.9961E+00
1.2147E+03	1.9104E+01
1.2152E+03	6.9096E+01
1.2156E+03	1.2765E+02
1.2161E+03	1.8758E+02
1.2166E+03	2.1105E+02
1.2171E+03	1.7860E+02
1.2176E+03	1.5912E+02
1.2180E+03	2.1675E+02
1.2185E+03	2.6835E+02
1.2190E+03	2.6305E+02
1.2195E+03	2.1883E+02
1.2200E+03	2.0498E+02
1.2205E+03	2.1671E+02
1.2209E+03	2.3592E+02
1.2214E+03	2.6342E+02
1.2219E+03	2.7601E+02
1.2224E+03	2.4012E+02
1.2229E+03	2.0869E+02
1.2233E+03	2.1635E+02
1.2238E+03	2.5302E+02
1.2243E+03	2.7507E+02
1.2248E+03	2.8216E+02
1.2253E+03	2.7149E+02
1.2258E+03	2.3771E+02
1.2262E+03	1.9818E+02
1.2267E+03	1.5229E+02
1.2272E+03	1.1520E+02
1.2277E+03	9.9752E+01
1.2282E+03	1.0020E+02
1.2287E+03	7.7117E+01
1.2291E+03	3.8467E+01
1.2296E+03	1.8793E+01
1.2301E+03	4.7492E+01
1.2306E+03	7.4262E+01
1.2311E+03	9.1363E+01
1.2315E+03	9.2066E+01
1.2320E+03	6.2354E+01
1.2325E+03	9.4629E+00
1.2330E+03	1.0742E-01
1.2335E+03	2.4994E+01
1.2340E+03	4.1350E+01
1.2344E+03	1.1613E+01
1.2349E+03	1.0996E+00
1.2354E+03	2.9270E+01
1.2359E+03	6.3250E+01
1.2364E+03	6.0072E+01
1.2368E+03	3.1338E+01
1.2373E+03	3.1484E+01
1.2378E+03	5.3072E+01
1.2383E+03	6.0482E+01
1.2388E+03	1.3379E+00
1.2393E+03	1.8270E+01
1.2397E+03	3.9992E+01
1.2402E+03	1.0799E+02
1.2407E+03	1.0857E+02
1.2412E+03	6.5473E+01
1.2417E+03	4.9113E+01
1.2422E+03	5.4340E+01
1.2426E+03	5.0486E+01
1.2431E+03	3.9063E+00
1.2436E+03	2.2275E+01
1.2441E+03	2.0773E+01
1.2446E+03	7.7318E+01
1.2450E+03	8.9986E+01
1.2455E+03	7.6547E+01
1.2460E+03	7.5703E+01
1.2465E+03	8.7381E+01
1.2470E+03	9.7666E+01
1.2475E+03	9.3885E+01
1.2479E+03	1.0691E+02
1.2484E+03	1.5192E+02
1.2489E+03	1.8586E+02
1.2494E+03	1.3727E+02
1.2499E+03	5.2354E+01
1.2503E+03	6.7559E+00
1.2508E+03	2.6738E+00
1.2513E+03	1.9242E+01
1.2518E+03	7.4195E+01
1.2523E+03	9.4137E+01
1.2528E+03	5.8576E+01
1.2532E+03	1.1121E+01
1.2537E+03	9.2949E+00
1.2542E+03	2.5977E+01
1.2547E+03	2.3059E+01
1.2552E+03	4.3555E-01
1.2556E+03	1.6848E+01
1.2561E+03	3.4176E+01
1.2566E+03	1.2586E+01
1.2571E+03	6.6703E+01
1.2576E+03	1.4065E+02
1.2581E+03	1.2113E+02
1.2585E+03	6.7932E+01
1.2590E+03	4.5514E+01
1.2595E+03	5.6551E+01
1.2600E+03	6.7742E+01
1.2605E+03	7.5234E+01
1.2610E+03	9.8764E+01
1.2614E+03	1.4697E+02
1.2619E+03	1.9271E+02
1.2624E+03	1.9919E+02
1.2629E+03	1.9437E+02
1.2634E+03	1.9309E+02
1.2638E+03	1.9987E+02
1.2643E+03	2.2488E+02
1.2648E+03	2.8361E+02
1.2653E+03	2.8811E+02
1.2658E+03	2.0659E+02
1.2663E+03	1.3070E+02
1.2667E+03	1.6264E+02
1.2672E+03	2.1876E+02
1.2677E+03	2.0716E+02
1.2682E+03	1.5166E+02
1.2687E+03	1.5515E+02
1.2691E+03	2.1351E+02
1.2696E+03	2.4043E+02
1.2701E+03	2.0803E+02
1.2706E+03	1.7353E+02
1.2711E+03	1.6923E+02
1.2716E+03	1.6265E+02
1.2720E+03	1.4494E+02
1.2725E+03	1.0933E+02
1.2730E+03	6.0266E+01
1.2735E+03	2.8391E+01
1.2740E+03	2.0176E+01
1.2745E+03	4.5637E+01
1.2749E+03	6.5223E+01
1.2754E+03	5.2385E+01
1.2759E+03	3.9111E+01
1.2764E+03	3.9139E+01
1.2769E+03	4.6260E+01
1.2773E+03	4.1619E+01
1.2778E+03	2.9791E+01
1.2783E+03	2.3809E+01
1.2788E+03	2.5574E+01
1.2793E+03	3.3182E+01
1.2798E+03	5.1080E+01
1.2802E+03	6.4482E+01
1.2807E+03	6.5525E+01
1.2812E+03	6.1809E+01
1.2817E+03	6.8309E+01
1.2822E+03	8.2498E+01
1.2826E+03	8.7389E+01
1.2831E+03	7.9900E+01
1.2836E+03	6.3469E+01
1.2841E+03	3.3314E+01
1.2846E+03	1.2160E+01
1.2851E+03	5.0449E+00
1.2855E+03	1.3029E+01
1.2860E+03	6.2891E+01
1.2865E+03	1.1727E+02
1.2870E+03	1.1376E+02
1.2875E+03	3.2664E+01
1.2880E+03	4.2773E-01
1.2884E+03	1.7324E+01
1.2889E+03	0.0000E+00
##END=	
