##NAMES=Ilmenite
##LOCALITY=Faraday Property, Bancroft District, Ontario, Canada
##RRUFFID=R060149
##CHEMISTRY=Fe^2+^Ti^4+^O_3_
154.7304, 21.78449
156.6589, 21.54019
158.5874, 21.37459
160.5158, 21.43765
162.4443, 21.57738
164.3728, 21.65975
166.3012, 21.69471
168.2297, 21.71804
170.1582, 21.81689
172.0866, 21.73144
174.0151, 21.16363
175.9436, 20.65354
177.8720, 20.74044
179.8005, 21.16161
181.7290, 21.30007
183.6574, 20.95285
185.5859, 20.74643
187.5144, 20.71476
189.4428, 20.83671
191.3713, 21.20797
193.2998, 21.69382
195.2282, 22.08224
197.1567, 22.33944
199.0852, 22.60782
201.0136, 22.90199
202.9421, 23.20000
204.8706, 23.41349
206.7990, 23.69108
208.7275, 24.19320
210.6560, 24.93370
212.5844, 25.63348
214.5129, 26.28959
216.4414, 26.90692
218.3698, 27.63459
220.2983, 28.16364
222.2268, 28.30894
224.1552, 28.11141
226.0837, 27.67798
228.0122, 26.92056
229.9406, 26.08690
231.8691, 25.09020
233.7976, 24.14453
235.7260, 23.31617
237.6545, 22.63760
239.5830, 22.17632
241.5114, 21.94133
243.4399, 21.71072
245.3684, 21.49070
247.2968, 21.29353
249.2253, 21.10241
251.1538, 20.92910
253.0822, 20.81795
255.0107, 20.75506
256.9392, 20.66101
258.8676, 20.53608
260.7961, 20.33969
262.7246, 19.96959
264.6530, 19.72561
266.5815, 19.87376
268.5100, 20.09277
270.4384, 20.01736
272.3669, 19.69302
274.2954, 19.63729
276.2238, 19.92085
278.1523, 20.11123
280.0808, 20.10096
282.0092, 19.95809
283.9377, 19.62239
285.8662, 19.22669
287.7946, 19.03791
289.7231, 19.05877
291.6516, 18.98615
293.5800, 18.71397
295.5085, 18.60625
297.4370, 18.94587
299.3654, 19.31876
301.2939, 19.52403
303.2224, 19.55860
305.1508, 19.38340
307.0793, 19.02807
309.0078, 18.86596
310.9362, 19.06010
312.8647, 19.18410
314.7932, 19.04093
316.7216, 18.89620
318.6501, 18.96824
320.5786, 19.16240
322.5070, 19.23803
324.4355, 19.18699
326.3640, 19.18415
328.2924, 19.35584
330.2209, 19.42186
332.1494, 19.22330
334.0778, 18.96649
336.0063, 18.77723
337.9348, 18.67819
339.8632, 18.70768
341.7917, 18.86513
343.7202, 19.03557
345.6486, 19.31143
347.5771, 19.46144
349.5056, 19.20931
351.4340, 19.01705
353.3625, 19.36718
355.2910, 19.98107
357.2194, 20.36818
359.1479, 20.50546
361.0764, 20.65168
363.0048, 20.84094
364.9333, 21.01766
366.8618, 21.39053
368.7902, 21.51683
370.7187, 20.94522
372.6472, 20.05266
374.5756, 19.34850
376.5041, 18.83997
378.4326, 18.27640
380.3610, 17.46375
382.2895, 16.89950
384.2180, 16.80066
386.1464, 16.72462
388.0749, 16.37392
390.0034, 15.99020
391.9318, 15.88309
393.8603, 16.01992
395.7888, 16.02786
397.7172, 15.80738
399.6457, 15.67924
401.5742, 15.72188
403.5026, 15.71613
405.4311, 15.48508
407.3596, 15.29673
409.2880, 15.42228
411.2165, 15.69553
413.1450, 15.67757
415.0734, 15.29145
417.0019, 15.14121
418.9304, 15.37410
420.8588, 15.43944
422.7873, 15.06691
424.7158, 14.69483
426.6442, 14.56100
428.5727, 14.58588
430.5012, 14.69725
432.4296, 14.85852
434.3581, 14.95357
436.2866, 14.98736
438.2150, 15.03508
440.1435, 15.14264
442.0720, 15.15490
444.0004, 14.90916
445.9289, 14.65490
447.8574, 14.53175
449.7858, 14.52736
451.7143, 14.60807
453.6428, 14.77557
455.5712, 14.89642
457.4997, 14.95267
459.4282, 14.97918
461.3566, 14.99613
463.2851, 14.97744
465.2136, 14.86789
467.1420, 14.76558
469.0705, 14.75155
470.9990, 14.76812
472.9274, 14.70652
474.8559, 14.58702
476.7844, 14.54194
478.7128, 14.59040
480.6413, 14.63242
482.5698, 14.63072
484.4982, 14.63910
486.4267, 14.74821
488.3552, 14.80750
490.2836, 14.61107
492.2121, 14.32603
494.1406, 14.32292
496.0690, 14.51621
497.9975, 14.55475
499.9260, 14.40748
501.8544, 14.24018
503.7829, 13.96167
505.7114, 13.86626
507.6398, 14.21766
509.5683, 14.52483
511.4968, 14.42179
513.4252, 14.21594
515.3537, 13.65730
517.2822, 14.40551
519.2106, 14.85563
521.1391, 15.02371
523.0676, 14.06495
524.9960, 14.56126
526.9245, 14.47444
528.8530, 14.36372
530.7814, 15.06483
532.7099, 14.26996
534.6384, 14.95820
536.5668, 15.05440
538.4953, 15.42157
540.4238, 15.20201
542.3522, 15.16366
544.2807, 15.71224
546.2092, 15.15358
548.1376, 15.19998
550.0661, 15.53713
551.9946, 15.66634
553.9230, 15.33277
555.8515, 15.05101
557.7800, 15.09984
559.7084, 15.24493
561.6369, 15.32626
563.5654, 15.37228
565.4938, 15.42310
567.4223, 15.48388
569.3508, 15.57571
571.2792, 15.72260
573.2077, 15.79895
575.1362, 15.73815
577.0646, 15.77249
578.9931, 16.01218
580.9216, 16.26509
582.8500, 16.48352
584.7785, 16.61792
586.7070, 16.55687
588.6354, 16.45862
590.5639, 16.59434
592.4924, 16.91748
594.4208, 17.09735
596.3493, 17.10293
598.2778, 17.14664
600.2062, 17.24324
602.1347, 17.40549
604.0632, 17.70146
605.9916, 17.89667
607.9201, 17.74907
609.8486, 17.66296
611.7770, 17.83633
613.7055, 18.16418
615.6340, 18.62150
617.5624, 19.15327
619.4909, 19.54818
621.4194, 19.81877
623.3478, 20.20277
625.2763, 20.72818
627.2048, 21.22762
629.1332, 21.65536
631.0617, 22.06415
632.9902, 22.25775
634.9186, 22.81610
636.8471, 24.14450
638.7756, 25.62221
640.7040, 26.85682
642.6325, 28.00640
644.5610, 29.12310
646.4894, 30.33699
648.4179, 32.07036
650.3464, 34.21432
652.2748, 36.28717
654.2033, 38.26975
656.1318, 40.19703
658.0602, 41.99448
659.9887, 43.97192
661.9172, 46.33278
663.8456, 48.65358
665.7741, 51.05408
667.7026, 53.14209
669.6310, 54.56424
671.5595, 55.67491
673.4880, 57.05058
675.4164, 58.16537
677.3449, 58.19613
679.2734, 57.38015
681.2018, 56.35674
683.1303, 55.11861
685.0588, 53.30112
686.9872, 50.74625
688.9157, 48.24501
690.8442, 45.68207
692.7726, 43.44835
694.7011, 41.73169
696.6296, 40.08329
698.5580, 38.37597
700.4865, 36.75024
702.4149, 35.28232
704.3434, 33.89028
706.2719, 32.52466
708.2003, 31.18814
710.1288, 29.81111
712.0573, 28.51754
713.9857, 27.62869
715.9142, 27.09656
717.8427, 26.52177
719.7711, 25.89312
721.6996, 25.25700
723.6281, 24.61079
725.5565, 24.08763
727.4850, 23.72305
729.4135, 23.28058
731.3419, 22.67076
733.2704, 22.13197
735.1989, 21.73278
737.1273, 21.43769
739.0558, 21.31432
740.9843, 21.17648
742.9127, 20.88946
744.8412, 20.53886
746.7697, 20.14308
748.6981, 19.78619
750.6266, 19.75986
752.5551, 19.98577
754.4835, 19.94991
756.4120, 19.65000
758.3405, 19.49068
760.2689, 19.46963
762.1974, 19.36981
764.1259, 19.17093
766.0543, 19.06102
767.9828, 19.10852
769.9113, 19.04084
771.8397, 18.69741
773.7682, 18.45345
775.6967, 18.48315
777.6251, 18.53843
779.5536, 18.54516
781.4821, 18.56455
783.4105, 18.67144
785.3390, 18.77356
787.2675, 18.71706
789.1959, 18.61300
791.1244, 18.64634
793.0529, 18.72428
794.9813, 18.67813
796.9098, 18.58142
798.8383, 18.60343
800.7667, 18.70913
802.6952, 18.70591
804.6237, 18.58174
806.5521, 18.49470
808.4806, 18.47376
810.4091, 18.43557
812.3375, 18.34983
814.2660, 18.29485
816.1945, 18.27855
818.1229, 18.28515
820.0514, 18.35984
821.9799, 18.41145
823.9083, 18.37858
825.8368, 18.33838
827.7653, 18.31981
829.6937, 18.31410
831.6222, 18.37603
833.5507, 18.42792
835.4791, 18.35122
837.4076, 18.23946
839.3361, 18.16595
841.2645, 18.13370
843.1930, 18.20944
845.1215, 18.34823
847.0499, 18.43380
848.9784, 18.42031
850.9069, 18.21456
852.8353, 17.88873
854.7638, 17.74492
856.6923, 17.75159
858.6207, 17.66643
860.5492, 17.48470
862.4777, 17.34965
864.4061, 17.26546
866.3346, 17.25588
868.2631, 17.37473
870.1915, 17.35590
872.1200, 17.16102
874.0485, 16.85624
875.9769, 16.39019
877.9054, 16.06330
879.8339, 16.01180
881.7623, 15.90137
883.6908, 15.59274
885.6193, 15.27763
887.5477, 14.97046
889.4762, 14.78795
891.4047, 14.92864
893.3331, 15.01144
895.2616, 14.72548
897.1901, 14.46359
899.1185, 14.49892
901.0470, 14.04730
902.9755, 14.65521
904.9039, 14.96505
906.8324, 14.99284
908.7609, 13.89378
910.6893, 14.24981
912.6178, 14.02270
914.5463, 13.77168
916.4747, 14.33251
918.4032, 13.39735
920.3317, 13.94529
922.2601, 13.90122
924.1886, 14.12809
926.1171, 13.76823
928.0455, 13.58960
929.9740, 13.46775
931.9025, 13.01681
933.8309, 12.82753
935.7594, 12.88498
937.6879, 13.04672
939.6163, 13.27548
941.5448, 13.21208
943.4733, 12.84830
945.4017, 12.73481
947.3302, 12.93268
949.2587, 13.02879
951.1871, 12.97375
953.1156, 12.82555
955.0441, 12.54751
956.9725, 12.46602
958.9010, 12.68171
960.8295, 12.84324
962.7579, 12.91228
964.6864, 12.90817
966.6149, 12.81481
968.5433, 12.71159
970.4718, 12.56575
972.4003, 12.48926
974.3287, 12.53822
976.2572, 12.52344
978.1857, 12.42944
980.1141, 12.31445
982.0426, 12.07866
983.9711, 12.00765
985.8995, 12.28470
987.8280, 12.47481
989.7565, 12.45576
991.6849, 12.35099
993.6134, 12.12889
995.5419, 12.03845
997.4703, 12.19459
999.3988, 12.29364
1001.327, 12.24762
1003.256, 12.20874
1005.184, 12.25222
1007.113, 12.22909
1009.041, 12.00533
1010.970, 11.83739
1012.898, 11.87686
1014.827, 11.94582
1016.755, 11.96542
1018.683, 11.96854
1020.612, 11.97977
1022.540, 11.96869
1024.469, 11.87817
1026.397, 11.86013
1028.326, 12.05129
1030.254, 12.15614
1032.183, 11.99573
1034.111, 11.89046
1036.040, 12.06639
1037.968, 12.10527
1039.897, 11.61459
1041.825, 11.33078
1043.754, 11.79442
1045.682, 12.13623
1047.610, 11.89558
1049.539, 11.67199
1051.467, 11.74283
1053.396, 11.78119
1055.324, 11.61646
1057.253, 11.49080
1059.181, 11.46358
1061.110, 11.51040
1063.038, 11.76573
1064.967, 11.90192
1066.895, 11.66163
1068.824, 11.46624
1070.752, 11.53618
1072.681, 11.59139
1074.609, 11.51238
1076.537, 11.42172
1078.466, 11.40310
1080.394, 11.33013
1082.323, 11.09899
1084.251, 10.90367
1086.180, 10.70779
1088.108, 10.70677
1090.037, 11.15139
1091.965, 11.42566
1093.894, 11.33450
1095.822, 11.18272
1097.751, 10.96994
1099.679, 10.84303
1101.608, 10.91872
1103.536, 10.84503
1105.464, 10.42049
1107.393, 10.21536
1109.321, 10.35090
1111.250, 10.49618
1113.178, 10.71510
1115.107, 10.74313
1117.035, 10.42949
1118.964, 10.29264
1120.892, 10.43422
1122.821, 10.58281
1124.749, 10.72556
1126.678, 10.73606
1128.606, 10.60860
1130.535, 10.45127
1132.463, 10.25409
1134.391, 10.19278
1136.320, 10.26760
1138.248, 10.40988
1140.177, 10.58899
1142.105, 10.48745
1144.034, 10.18046
1145.962, 10.02237
1147.891, 10.00935
1149.819, 10.18138
1151.748, 10.41591
1153.676, 10.34874
1155.605, 10.15995
1157.533, 10.31759
1159.462, 10.58984
1161.390, 10.49075
1163.318, 10.24021
1165.247, 10.18616
1167.175, 10.21658
1169.104, 10.17965
1171.032, 10.08430
1172.961, 9.918844
1174.889, 9.814954
1176.818, 9.912442
1178.746, 9.991738
1180.675, 9.848743
1182.603, 9.802370
1184.532, 10.14478
1186.460, 10.37454
1188.389, 10.21788
1190.317, 10.05521
1192.245, 9.931540
1194.174, 9.903217
1196.102, 10.10608
1198.031, 10.22062
1199.959, 10.08927
1201.888, 10.07522
1203.816, 10.27925
1205.745, 10.40559
1207.673, 10.41765
1209.602, 10.40270
1211.530, 10.39542
1213.459, 10.42294
1215.387, 10.44738
1217.316, 10.43337
1219.244, 10.41085
1221.172, 10.49518
1223.101, 10.58949
1225.029, 10.37094
1226.958, 10.03700
1228.886, 9.936275
1230.815, 9.974405
1232.743, 10.08828
1234.672, 10.24364
1236.600, 10.44665
1238.529, 10.53720
1240.457, 10.31715
1242.386, 10.12683
1244.314, 10.16779
1246.243, 10.27126
1248.171, 10.40705
1250.099, 10.47548
1252.028, 10.45974
1253.956, 10.36281
1255.885, 10.11819
1257.813, 10.01990
1259.742, 10.16525
1261.670, 10.24624
1263.599, 10.18436
1265.527, 10.17260
1267.456, 10.28733
1269.384, 10.33842
1271.313, 10.27260
1273.241, 10.33621
1275.170, 10.55422
1277.098, 10.80219
1279.026, 10.95231
1280.955, 10.77874
1282.883, 10.55098
1284.812, 10.59733
1286.740, 10.66739
1288.669, 10.53546
1290.597, 10.50673
1292.526, 10.81233
1294.454, 11.07689
1296.383, 11.17765
1298.311, 11.20284
1300.240, 11.10459
1302.168, 11.14373
1304.097, 11.38826
1306.025, 11.33464
1307.953, 10.98572
1309.882, 10.97287
1311.810, 11.22359
1313.739, 11.34254
1315.667, 11.38610
1317.596, 11.32316
1319.524, 11.21246
1321.453, 11.31323
1323.381, 11.48223
1325.310, 11.46949
1327.238, 11.47081
1329.167, 11.74844
1331.095, 11.96045
1333.024, 11.88717
1334.952, 11.75328
1336.880, 11.54363
1338.809, 11.46656
1340.737, 11.66576
1342.666, 11.88438
1344.594, 12.08562
1346.523, 11.92239
1348.451, 11.43002
1350.380, 11.38085
1352.308, 11.69620
1354.237, 11.80589
1356.165, 11.75395
1358.094, 11.76066
1360.022, 11.78618
1361.951, 11.73403
1363.879, 11.70833
1365.807, 11.78827
1367.736, 11.88784
1369.664, 11.96392
1371.593, 11.97170
1373.521, 11.89273
1375.450, 11.83718
1377.378, 11.88071
1379.307, 11.87839
1381.235, 11.75481
1383.164, 11.77307
1385.092, 11.88819
1387.021, 11.84109
1388.949, 11.76013
1390.878, 11.92123
1392.806, 12.10099
1394.734, 11.88200
1396.663, 11.69330
1398.591, 11.95246
1400.520, 12.11769
1402.448, 12.08283
1404.377, 11.98781
1406.305, 11.80807
1408.234, 11.69031
1410.162, 11.62684
1412.091, 11.74820
1414.019, 11.97460
1415.948, 11.94689
1417.876, 11.84237
1419.805, 11.81479
1421.733, 11.79747
1423.661, 11.86810
1425.590, 11.93200
1427.518, 11.86673
1429.447, 11.82383
1431.375, 11.92370
1433.304, 11.90725
1435.232, 11.65778
1437.161, 11.61033
1439.089, 11.75312
1441.018, 11.85021
1442.946, 11.90100
1444.875, 11.56083
1446.803, 11.19372
1448.731, 11.35424
1450.660, 11.59697
1452.588, 11.70048
1454.517, 11.72671
1456.445, 11.64657
1458.374, 11.52446
1460.302, 11.33935
1462.231, 11.31948
1464.159, 11.48556
1466.088, 11.46074
1468.016, 11.28542
1469.945, 11.34229
1471.873, 11.48384
1473.802, 11.38896
1475.730, 11.26383
1477.658, 11.20514
1479.587, 11.20810
1481.515, 11.37604
1483.444, 11.43023
1485.372, 11.21791
1487.301, 11.15649
1489.229, 11.29853
1491.158, 11.09767
1493.086, 10.76180
1495.015, 10.85587
1496.943, 10.90502
1498.872, 10.65482
1500.800, 10.69410
1502.729, 10.94297
1504.657, 10.87710
1506.585, 10.52340
1508.514, 10.31224
1510.442, 10.32477
1512.371, 10.45659
1514.299, 10.56714
1516.228, 10.46548
1518.156, 10.34876
1520.085, 10.38086
1522.013, 10.41892
1523.942, 10.61968
1525.870, 10.77323
1527.799, 10.41704
1529.727, 10.22397
1531.656, 10.45004
1533.584, 10.41837
1535.512, 10.17836
1537.441, 10.18965
1539.369, 10.32693
1541.298, 10.39997
1543.226, 10.42972
1545.155, 10.38251
1547.083, 10.31782
1549.012, 10.37585
1550.940, 10.41163
1552.869, 10.35677
1554.797, 10.25977
1556.726, 10.16503
1558.654, 10.14899
1560.583, 10.16374
1562.511, 10.22221
1564.439, 10.24007
1566.368, 10.21293
1568.296, 10.28149
1570.225, 10.28224
1572.153, 10.26663
1574.082, 10.37646
1576.010, 10.30066
1577.939, 10.10882
1579.867, 10.02503
1581.796, 10.08260
1583.724, 10.39142
1585.653, 10.46782
1587.581, 10.07963
1589.510, 9.819157
1591.438, 9.834002
1593.366, 9.794358
1595.295, 9.669439
1597.223, 9.695521
1599.152, 9.916601
1601.080, 10.18175
1603.009, 10.19126
1604.937, 9.874761
1606.866, 9.873088
1608.794, 10.28577
1610.723, 10.31714
1612.651, 10.05201
1614.580, 10.02342
1616.508, 10.06659
1618.437, 10.00679
1620.365, 9.909701
1622.293, 9.914330
1624.222, 9.999038
1626.150, 9.984981
1628.079, 9.870091
1630.007, 9.764009
1631.936, 9.824958
1633.864, 9.960332
1635.793, 9.783406
1637.721, 9.544427
1639.650, 9.617025
1641.578, 9.795233
1643.507, 9.883546
1645.435, 9.670841
1647.364, 9.343107
1649.292, 9.357941
1651.220, 9.534640
1653.149, 9.652469
1655.077, 9.722144
1657.006, 9.744845
1658.934, 9.758917
1660.863, 9.734751
1662.791, 9.633645
1664.720, 9.525921
1666.648, 9.364470
1668.577, 9.222912
1670.505, 9.227242
1672.434, 9.363872
1674.362, 9.657052
1676.291, 9.758925
1678.219, 9.562806
1680.147, 9.513486
1682.076, 9.601515
1684.004, 9.567040
1685.933, 9.560792
1687.861, 9.542578
1689.790, 9.434652
1691.718, 9.486340
1693.647, 9.552540
1695.575, 9.469773
1697.504, 9.453568
1699.432, 9.439785
1701.361, 9.283188
1703.289, 9.250470
1705.218, 9.336634
1707.146, 9.284426
1709.074, 9.261633
1711.003, 9.335292
1712.931, 9.213871
1714.860, 9.044936
1716.788, 9.079591
1718.717, 9.219646
1720.645, 9.235496
1722.574, 9.055457
1724.502, 9.045682
1726.431, 9.206893
1728.359, 9.263935
1730.288, 9.239453
1732.216, 9.082238
1734.145, 8.851709
1736.073, 8.773021
1738.001, 8.722959
1739.930, 8.693741
1741.858, 8.877504
1743.787, 9.027434
1745.715, 8.974369
1747.644, 8.934331
1749.572, 8.813290
1751.501, 8.749783
1753.429, 9.008613
1755.358, 8.986023
1757.286, 8.692005
1759.215, 8.727382
1761.143, 8.801982
1763.072, 8.685883
1765.000, 8.623428
1766.928, 8.756501
1768.857, 9.001081
1770.785, 9.050632
1772.714, 8.791802
1774.642, 8.625010
1776.571, 8.709394
1778.499, 8.777461
1780.428, 8.753910
1782.356, 8.788157
1784.285, 8.829730
1786.213, 8.800567
1788.142, 8.620023
1790.070, 8.268101
1791.999, 8.333102
1793.927, 8.721837
1795.855, 8.735209
1797.784, 8.570744
1799.712, 8.460028
1801.641, 8.464943
1803.569, 8.618557
1805.498, 8.609923
1807.426, 8.508119
1809.355, 8.548887
1811.283, 8.634547
1813.212, 8.646118
1815.140, 8.546951
1817.069, 8.353475
1818.997, 8.258649
1820.926, 8.248430
1822.854, 8.393030
1824.782, 8.517727
1826.711, 8.394830
1828.639, 8.225474
1830.568, 8.173645
1832.496, 8.085974
1834.425, 7.963610
1836.353, 7.873392
1838.282, 7.964953
1840.210, 8.252672
1842.139, 8.344304
1844.067, 8.138831
1845.996, 7.906256
1847.924, 7.843437
1849.853, 7.926349
1851.781, 7.963782
1853.709, 7.920232
1855.638, 7.949280
1857.566, 7.999523
1859.495, 7.939001
1861.423, 7.874350
1863.352, 7.911737
1865.280, 8.043891
1867.209, 8.208229
1869.137, 8.201437
1871.066, 8.111375
1872.994, 7.899474
1874.923, 7.667872
1876.851, 7.734015
1878.780, 7.779004
1880.708, 7.704485
1882.636, 7.624845
1884.565, 7.566187
1886.493, 7.545944
1888.422, 7.473672
1890.350, 7.402380
1892.279, 7.506993
1894.207, 7.598706
1896.136, 7.671445
1898.064, 7.704493
1899.993, 7.707514
1901.921, 7.622812
1903.850, 7.281754
1905.778, 7.271429
1907.707, 7.485496
1909.635, 7.395893
1911.563, 7.285168
1913.492, 7.360025
1915.420, 7.503792
1917.349, 7.623914
1919.277, 7.404993
1921.206, 7.208102
1923.134, 7.244502
1925.063, 7.328670
1926.991, 7.421094
1928.920, 7.401307
1930.848, 7.310910
1932.777, 7.397162
1934.705, 7.581492
1936.634, 7.579265
1938.562, 7.382039
1940.490, 7.214539
1942.419, 7.256597
1944.347, 7.333463
1946.276, 7.409783
1948.204, 7.477890
1950.133, 7.372021
1952.061, 7.264810
1953.990, 7.248230
1955.918, 7.194201
1957.847, 7.133915
1959.775, 7.102081
1961.704, 7.079707
1963.632, 7.144029
1965.561, 7.155892
1967.489, 7.099846
1969.417, 7.121904
1971.346, 6.948065
1973.274, 6.773309
1975.203, 6.891886
1977.131, 6.885998
1979.060, 6.782152
1980.988, 6.855469
1982.917, 6.942747
1984.845, 6.827679
1986.774, 6.752508
1988.702, 6.833711
1990.631, 6.864830
1992.559, 6.773795
1994.488, 6.686292
1996.416, 6.631965
1998.344, 6.712011
2000.273, 6.756346
2002.201, 6.711136
2004.130, 6.657296
2006.058, 6.667916
2007.987, 6.690616
2009.915, 6.492632
2011.844, 6.325038
2013.772, 6.471465
2015.701, 6.667734
2017.629, 6.700452
2019.558, 6.709826
2021.486, 6.606408
2023.415, 6.564538
2025.343, 6.706213
2027.271, 6.620399
2029.200, 6.479287
2031.128, 6.330057
2033.057, 6.310493
2034.985, 6.483809
2036.914, 6.502365
2038.842, 6.561040
2040.771, 6.752860
2042.699, 6.705697
2044.628, 6.489963
2046.556, 6.329420
2048.485, 6.275352
2050.413, 6.333274
2052.342, 6.466209
2054.270, 6.554062
2056.198, 6.479256
2058.127, 6.381454
2060.055, 6.280733
2061.984, 6.220234
2063.912, 6.135973
2065.841, 6.057066
2067.769, 6.152766
2069.698, 6.227799
2071.626, 6.120171
2073.555, 6.084287
2075.483, 6.156507
2077.412, 6.230202
2079.340, 6.324275
2081.269, 6.239823
2083.197, 6.081500
2085.125, 6.079559
2087.054, 6.063759
2088.982, 5.934793
2090.911, 6.007837
2092.839, 6.065448
2094.768, 5.952983
2096.696, 5.892799
2098.625, 5.908529
2100.553, 5.807937
2102.482, 5.669101
2104.410, 5.873579
2106.339, 6.000069
2108.267, 5.944835
2110.196, 5.931575
2112.124, 5.834082
2114.052, 5.448687
2115.981, 5.318590
2117.909, 5.486758
2119.838, 5.582408
2121.766, 5.564318
2123.695, 5.592604
2125.623, 5.671418
2127.552, 5.655631
2129.480, 5.536620
2131.409, 5.477451
2133.337, 5.496781
2135.266, 5.529294
2137.194, 5.640488
2139.123, 5.628253
2141.051, 5.510452
2142.979, 5.401408
2144.908, 5.322974
2146.836, 5.255963
2148.765, 5.442778
2150.693, 5.595711
2152.622, 5.599305
2154.550, 5.541924
2156.479, 5.521224
2158.407, 5.667552
2160.336, 5.678920
2162.264, 5.558451
2164.193, 5.452190
2166.121, 5.223685
2168.050, 5.053007
2169.978, 4.941870
2171.906, 4.912164
2173.835, 5.276234
2175.763, 5.442768
2177.692, 5.239337
2179.620, 5.187793
2181.549, 5.240291
2183.477, 5.207235
2185.406, 5.261054
2187.334, 5.378931
2189.263, 5.390650
2191.191, 5.332952
2193.120, 5.032996
2195.048, 4.927279
2196.977, 5.040243
2198.905, 5.080675
2200.833, 5.029444
2202.762, 4.907280
2204.690, 4.933141
2206.619, 5.042903
2208.547, 4.964434
2210.476, 4.983267
2212.404, 5.155654
2214.333, 5.052033
2216.261, 4.977504
2218.190, 5.165586
2220.118, 5.097948
2222.047, 4.914277
2223.975, 4.753877
2225.904, 4.600496
2227.832, 4.532022
2229.760, 4.624520
2231.689, 4.795871
2233.617, 4.951501
2235.546, 4.854555
2237.474, 4.696196
2239.403, 4.811174
2241.331, 4.788199
2243.260, 4.551427
2245.188, 4.598100
2247.117, 4.715426
2249.045, 4.770499
2250.974, 4.625687
2252.902, 4.497337
2254.831, 4.741660
2256.759, 4.907163
2258.688, 4.887745
2260.616, 4.681606
2262.544, 4.491356
2264.473, 4.433703
2266.401, 4.564917
2268.330, 4.816386
2270.258, 4.771769
2272.187, 4.720231
2274.115, 4.685257
2276.044, 4.509635
2277.972, 4.441927
2279.901, 4.940837
2281.829, 5.003450
2283.758, 4.731321
2285.686, 4.658069
2287.615, 4.672105
2289.543, 4.694317
2291.471, 4.609509
2293.400, 4.521504
2295.328, 4.420455
2297.257, 4.178185
2299.185, 3.928473
2301.114, 4.208988
2303.042, 4.442932
2304.971, 4.385124
2306.899, 4.498765
2308.828, 4.574091
2310.756, 4.363248
2312.685, 4.257226
2314.613, 4.230155
2316.542, 4.276336
2318.470, 4.248641
2320.398, 4.111252
2322.327, 4.242712
2324.255, 4.388978
2326.184, 4.416176
2328.112, 4.322817
2330.041, 4.201092
2331.969, 4.080653
2333.898, 4.047812
2335.826, 4.098983
2337.755, 4.149125
2339.683, 4.200834
2341.612, 4.212627
2343.540, 4.239791
2345.469, 4.158155
2347.397, 3.799847
2349.325, 3.927707
2351.254, 4.219144
2353.182, 3.781978
2355.111, 3.576005
2357.039, 3.713600
2358.968, 3.915138
2360.896, 3.998791
2362.825, 3.891194
2364.753, 3.902555
2366.682, 3.937592
2368.610, 3.834033
2370.539, 3.972212
2372.467, 4.171282
2374.396, 4.060327
2376.324, 3.973054
2378.252, 3.954077
2380.181, 3.940048
2382.109, 3.961071
2384.038, 4.046217
2385.966, 4.210376
2387.895, 4.301878
2389.823, 4.143278
2391.752, 4.073065
2393.680, 4.033005
2395.609, 3.928765
2397.537, 3.826835
2399.466, 3.761199
2401.394, 4.010637
2403.323, 4.047555
2405.251, 3.694898
2407.179, 3.783139
2409.108, 3.923281
2411.036, 3.870427
2412.965, 3.696209
2414.893, 3.548424
2416.822, 3.582097
2418.750, 3.659374
2420.679, 3.778533
2422.607, 3.991548
2424.536, 3.863630
2426.464, 3.451602
2428.393, 3.445020
2430.321, 3.481289
2432.250, 3.405240
2434.178, 3.411137
2436.106, 3.431558
2438.035, 3.436997
2439.963, 3.620256
2441.892, 3.758133
2443.820, 3.575273
2445.749, 3.337129
2447.677, 3.188415
2449.606, 3.398390
2451.534, 3.518608
2453.463, 3.508770
2455.391, 3.440539
2457.320, 3.317140
2459.248, 3.202619
2461.177, 3.305766
2463.105, 3.313403
2465.033, 3.107290
2466.962, 3.273201
2468.890, 3.514365
2470.819, 3.656061
2472.747, 3.575508
2474.676, 3.384218
2476.604, 3.331020
2478.533, 3.187343
2480.461, 3.107458
2482.390, 3.340154
2484.318, 3.432337
2486.247, 3.342988
2488.175, 2.872956
2490.104, 2.843299
2492.032, 3.314083
2493.960, 3.123501
2495.889, 3.011031
2497.817, 3.149856
2499.746, 3.234882
2501.674, 3.290395
2503.603, 3.243573
2505.531, 3.273581
2507.460, 3.233470
2509.388, 2.984943
2511.317, 3.081568
2513.245, 3.206143
2515.174, 3.064392
2517.102, 3.184987
2519.031, 3.304397
2520.959, 3.069909
2522.887, 2.753442
2524.816, 2.606619
2526.744, 2.951812
2528.673, 2.981122
2530.601, 2.839950
2532.530, 2.898863
2534.458, 2.973322
2536.387, 2.951120
2538.315, 2.948892
2540.244, 2.898133
2542.172, 2.745270
2544.101, 2.678346
2546.029, 2.809760
2547.958, 3.047601
2549.886, 3.227676
2551.814, 3.169754
2553.743, 2.942479
2555.671, 2.706846
2557.600, 2.596512
2559.528, 2.638812
2561.457, 2.841429
2563.385, 2.988631
2565.314, 2.955071
2567.242, 2.936744
2569.171, 2.875787
2571.099, 2.799440
2573.028, 2.906786
2574.956, 2.925549
2576.885, 2.805535
2578.813, 2.893695
2580.741, 2.912665
2582.670, 2.934888
2584.598, 2.686278
2586.527, 2.572840
2588.455, 2.893452
2590.384, 2.737533
2592.312, 2.574970
2594.241, 2.701731
2596.169, 2.759216
2598.098, 2.646050
2600.026, 2.524372
2601.955, 2.364477
2603.883, 2.301503
2605.812, 2.488201
2607.740, 2.410484
2609.668, 2.360904
2611.597, 2.666673
2613.525, 2.744705
2615.454, 2.552123
2617.382, 2.159987
2619.311, 2.247048
2621.239, 2.407496
2623.168, 2.282335
2625.096, 2.216025
2627.025, 2.306054
2628.953, 2.424520
2630.882, 2.182209
2632.810, 2.006538
2634.739, 2.284025
2636.667, 2.449677
2638.595, 2.301867
2640.524, 2.064457
2642.452, 2.267077
2644.381, 2.427871
2646.309, 2.251189
2648.238, 2.310679
2650.166, 2.524082
2652.095, 2.693693
2654.023, 2.201074
2655.952, 1.931034
2657.880, 2.231921
2659.809, 2.364385
2661.737, 2.289966
2663.666, 2.161033
2665.594, 2.332244
2667.522, 2.252136
2669.451, 1.881572
2671.379, 1.923575
2673.308, 2.073898
2675.236, 2.152332
2677.165, 1.925958
2679.093, 1.943890
2681.022, 2.124182
2682.950, 1.975904
2684.879, 1.967798
2686.807, 2.009418
2688.736, 1.889129
2690.664, 1.870372
2692.593, 1.819761
2694.521, 2.094417
2696.449, 1.963555
2698.378, 1.848329
2700.306, 1.958623
2702.235, 1.866481
2704.163, 1.971230
2706.092, 2.187279
2708.020, 2.161112
2709.949, 2.050582
2711.877, 2.139053
2713.806, 2.106424
2715.734, 1.913621
2717.663, 1.708977
2719.591, 1.658551
2721.520, 1.754517
2723.448, 1.977457
2725.376, 1.915306
2727.305, 1.906831
2729.233, 1.884908
2731.162, 1.679327
2733.090, 1.709568
2735.019, 1.703495
2736.947, 1.501337
2738.876, 1.699461
2740.804, 2.203804
2742.733, 2.508950
2744.661, 2.236842
2746.590, 2.010696
2748.518, 1.711939
2750.447, 1.546670
2752.375, 1.624260
2754.303, 1.875348
2756.232, 2.198637
2758.160, 1.989797
2760.089, 1.533944
2762.017, 1.768454
2763.946, 1.814905
2765.874, 1.727283
2767.803, 1.761419
2769.731, 1.728300
2771.660, 1.592803
2773.588, 1.467222
2775.517, 1.615127
2777.445, 1.759851
2779.374, 1.649730
2781.302, 1.558584
2783.230, 1.606501
2785.159, 1.699244
2787.087, 1.828033
2789.016, 1.957899
2790.944, 1.906006
2792.873, 1.749033
2794.801, 1.699754
2796.730, 1.668101
2798.658, 1.512437
2800.587, 1.626057
2802.515, 1.725304
2804.444, 1.497311
2806.372, 1.257978
2808.301, 1.422755
2810.229, 2.007493
2812.157, 1.633436
2814.086, 1.454499
2816.014, 1.652506
2817.943, 1.458756
2819.871, 1.213496
2821.800, 1.100048
2823.728, 1.408209
2825.657, 1.570291
2827.585, 1.527737
2829.514, 1.388689
2831.442, 1.555956
2833.371, 1.564091
2835.299, 1.362980
2837.228, 1.404410
2839.156, 1.476336
2841.084, 1.547119
2843.013, 1.688028
2844.941, 1.771697
2846.870, 1.763345
2848.798, 1.482124
2850.727, 1.244763
2852.655, 1.297067
2854.584, 1.495818
2856.512, 1.209417
2858.441, 1.288923
2860.369, 1.465809
2862.298, 1.502104
2864.226, 1.474338
2866.155, 1.377409
2868.083, 1.339500
2870.011, 1.172838
2871.940, 1.303412
2873.868, 1.738163
2875.797, 1.375444
2877.725, 1.224630
2879.654, 1.265861
2881.582, 0.9989898
2883.511, 0.9610787
2885.439, 1.145352
2887.368, 1.466616
2889.296, 1.149259
2891.225, 1.124321
2893.153, 1.578999
2895.082, 1.412880
2897.010, 1.190273
2898.938, 1.275902
2900.867, 1.122537
2902.795, 0.8793337
2904.724, 0.8969561
2906.652, 1.238789
2908.581, 1.006761
2910.509, 0.9250156
2912.438, 1.188702
2914.366, 1.148804
2916.295, 1.029496
2918.223, 1.063094
2920.152, 1.353999
2922.080, 1.007166
2924.008, 0.7252439
2925.937, 0.9402848
2927.865, 0.7647895
2929.794, 0.7650583
2931.722, 0.9079420
2933.651, 1.397278
2935.579, 1.376257
2937.508, 0.9485630
2939.436, 0.6617649
2941.365, 0.8662958
2943.293, 1.160154
2945.221, 1.437921
2947.150, 0.8074732
2949.078, 0.4169014
2951.007, 0.5216221
2952.935, 0.9274709
2954.864, 0.9618700
2956.792, 1.015232
2958.721, 1.054724
2960.649, 0.8339908
2962.578, 0.9009824
2964.506, 0.8469776
2966.435, 0.8297911
2968.363, 0.5426487
2970.292, 0.6013021
2972.220, 0.9499079
2974.148, 0.8274904
2976.077, 0.9803931
2978.005, 1.035015
2979.934, 1.021818
2981.862, 0.8843299
2983.791, 0.9582662
2985.719, 1.102842
2987.648, 0.9076926
2989.576, 0.7606989
2991.505, 0.6527953
2993.433, 0.6147696
2995.362, 0.6961086
2997.290, 0.5671540
2999.219, 0.7215269
3001.147, 0.6774072
3003.075, 0.8392782
3005.004, 0.8603716
3006.932, 0.7266624
3008.861, 0.8251818
3010.789, 0.7973484
3012.718, 0.7794551
3014.646, 0.9452714
3016.575, 0.8956266
3018.503, 0.6141227
3020.432, 0.5131181
3022.360, 0.7829456
3024.289, 0.7017013
3026.217, 0.6251616
3028.146, 0.7043915
3030.074, 0.8883758
3032.002, 0.6133753
3033.931, 0.4975968
3035.859, 0.7298251
3037.788, 0.7682533
3039.716, 0.6722926
3041.645, 0.6160401
3043.573, 0.9023324
3045.502, 0.9170584
3047.430, 0.8265579
3049.359, 0.6048756
3051.287, 0.5714853
3053.216, 0.8003031
3055.144, 0.9528872
3057.073, 0.6752347
3059.001, 0.7897974
3060.929, 0.9373661
3062.858, 0.8298439
3064.786, 0.9860709
3066.715, 0.9002067
3068.643, 0.8241553
3070.572, 0.7151521
3072.500, 0.8472499
3074.429, 1.025538
3076.357, 1.074591
3078.286, 0.9408619
3080.214, 0.5115222
3082.143, 0.3209506
3084.071, 0.2945856
3086.000, 0.3291122
3087.928, 0.3956997
3089.856, 0.5277047
3091.785, 0.6615561
3093.713, 0.8014957
3095.642, 0.5670483
3097.570, 0.6420113
3099.499, 0.8957427
3101.427, 0.8244511
3103.356, 0.8103489
3105.284, 0.6417067
3107.213, 0.3486848
3109.141, 0.4691195
3111.070, 0.5616598
3112.998, 0.6455629
3114.927, 0.6321402
3116.855, 0.5842403
3118.783, 0.6006970
3120.712, 0.4865633
3122.640, 0.3479414
3124.569, 0.5722145
3126.497, 0.5316839
3128.426, 0.3950898
3130.354, 0.7612726
3132.283, 0.4573976
3134.211, 0.3712839
3136.140, 0.5968496
3138.068, 0.7543927
3139.997, 0.4137755
3141.925, 0.5017498
3143.854, 0.8286755
3145.782, 0.6477674
3147.710, 0.8054417
3149.639, 0.6811146
3151.567, 0.4292560
3153.496, 0.5438890
3155.424, 0.5483250
3157.353, 0.4877595
3159.281, 0.3160206
3161.210, 0.4833294
3163.138, 0.5523570
3165.067, 0.5521804
3166.995, 0.5670478
3168.924, 0.5182254
3170.852, 0.5652267
3172.781, 0.5059992
3174.709, 0.3684011
3176.637, 0.7065393
3178.566, 0.4792340
3180.494, 0.3633321
3182.423, 0.6746450
3184.351, 0.7214280
3186.280, 0.5309690
3188.208, 0.5132170
3190.137, 0.6484743
3192.065, 4.2229589E-02
3193.994, 7.6220043E-02
3195.922, 0.3374726
3197.851, 0.4779430
3199.779, 0.5377232
3201.708, 0.7640975
3203.636, 0.7404785
3205.564, 0.4352055
3207.493, 0.5332983
3209.421, 0.6002260
3211.350, 0.4401830
3213.278, 0.3323050
3215.207, 0.7412257
3217.135, 0.1695346
3219.064, -2.2432970E-02
3220.992, 0.4226429
3222.921, 0.4819930
3224.849, 0.4752568
3226.778, 0.3943532
3228.706, 0.3470380
3230.635, 0.7059117
3232.563, 0.6931960
3234.491, 0.6132170
3236.420, 0.5891796
3238.348, 0.5359938
3240.277, 0.7139175
3242.205, 0.6127919
3244.134, 0.3417345
3246.062, 0.1358277
3247.991, -0.1227380
3249.919, 0.2796277
3251.848, 0.7085276
3253.776, 0.4747474
3255.705, 0.5294626
3257.633, 0.4216496
3259.562, 0.4604892
3261.490, 0.6906062
3263.418, 0.4240395
3265.347, 0.3154553
3267.275, 0.3407154
3269.204, 0.3769768
3271.132, 0.3743615
3273.061, 0.6226502
3274.989, 0.4851135
3276.918, 0.1723385
3278.846, 0.4657141
3280.775, 0.1107444
3282.703, 0.2502576
3284.632, 0.5180718
3286.560, 0.2042507
3288.489, -0.1729808
3290.417, 0.1687701
3292.345, 0.5442924
3294.274, 0.3931670
3296.202, 0.4769379
3298.131, 0.5039838
3300.059, 0.3115970
3301.988, 4.7365349E-02
3303.916, 0.1430026
3305.845, 0.1164035
3307.773, 0.3433489
3309.702, 0.6546388
3311.630, 0.4849525
3313.559, 0.4662058
3315.487, 0.6524366
3317.416, 0.6294683
3319.344, 0.2333482
3321.272, 0.8104052
3323.201, 0.5505911
3325.129, 0.3514352
3327.058, 0.6201131
3328.986, 0.7554464
3330.915, 0.5931615
3332.843, 0.3295684
3334.772, 0.2301545
3336.700, 0.4230101
3338.629, 0.4459223
3340.557, 0.2766621
3342.486, 5.2026160E-02
3344.414, -2.8029729E-03
3346.343, 0.7018303
3348.271, 8.4808521E-02
3350.199, 9.7697534E-02
3352.128, 0.5796660
3354.056, 0.1778816
3355.985, 0.3017532
3357.913, 0.5103652
3359.842, 0.5358625
3361.770, 0.4387619
3363.699, 1.076214
3365.627, 0.2201118
3367.556, -0.1424306
3369.484, 0.2827564
3371.413, 0.6866109
3373.341, 0.3570943
3375.270, 0.4602900
3377.198, 0.6168494
3379.126, 0.5247324
3381.055, 0.7309176
3382.983, 0.4121245
3384.912, 0.1503159
3386.840, 8.4997699E-02
3388.769, 9.1343187E-02
3390.697, 0.3390989
3392.626, 0.4516842
3394.554, 0.4549840
3396.483, 0.3150635
3398.411, -0.1264197
3400.340, 0.3312319
3402.268, 0.5534716
3404.197, 0.4899192
3406.125, 0.3799910
3408.053, -6.0103219E-02
3409.982, 0.1991214
3411.910, 0.5629130
3413.839, 0.5417839
3415.767, -1.5272630E-02
3417.696, 0.1921783
3419.624, 0.3622235
3421.553, 0.3551742
3423.481, 0.2673679
3425.410, 0.3007154
3427.338, -2.9273139E-02
3429.267, 5.6225121E-02
3431.195, 0.3458715
3433.124, 0.4997861
3435.052, 0.5761636
3436.980, 0.8261871
3438.909, 0.7050779
3440.837, 0.3711451
3442.766, 0.1808805
3444.694, 0.1142492
3446.623, 0.4413269
3448.551, 0.3859378
3450.480, 0.1139021
3452.408, 0.2783562
3454.337, 8.2718417E-02
3456.265, 0.1746345
3458.194, 0.1577788
3460.122, 1.9271270E-03
3462.051, 9.4668858E-02
3463.979, 0.5993363
3465.907, 0.6392797
3467.836, 0.6001174
3469.764, 0.5636333
3471.693, 8.8927180E-02
3473.621, -8.9427657E-02
3475.550, 3.4308899E-02
3477.478, 0.3463629
3479.407, 0.5662508
3481.335, 0.1930663
3483.264, 0.3964718
3485.192, 0.1086695
3487.121, 2.3172971E-02
3489.049, 0.4122173
3490.978, 0.2280472
3492.906, 0.5255193
3494.834, 0.2822787
3496.763, 0.2551191
3498.691, 0.5842940
3500.620, -0.1626514
3502.548, -9.7221591E-02
3504.477, -0.1044048
3506.405, -0.1731450
3508.334, -5.7788230E-02
3510.262, 0.4020582
3512.191, 0.4555088
3514.119, 0.1407599
3516.048, 0.3330888
3517.976, 0.8676304
3519.905, 0.5344373
3521.833, -5.7479959E-02
3523.761, 0.5200330
3525.690, 0.8649687
3527.618, 0.5450035
3529.547, 0.2760632
3531.475, 0.1918295
3533.404, 0.2993546
3535.332, 0.3121155
3537.261, 0.3057052
3539.189, 0.4645189
3541.118, 0.3814458
3543.046, 3.9764870E-02
3544.975, 0.3417772
3546.903, 0.4993702
3548.832, -0.1104177
3550.760, 0.8589160
3552.688, 0.5415288
3554.617, -5.8115982E-02
3556.545, 4.2113431E-02
3558.474, 0.6587919
3560.402, 0.1184484
3562.331, 0.1241268
3564.259, 0.1408307
3566.188, 0.1952229
3568.116, 0.3255931
3570.045, 0.4588169
3571.973, 0.7209374
3573.902, 0.2568273
3575.830, -8.8791557E-02
3577.759, 6.3183077E-02
3579.687, 0.4391365
3581.615, 0.1472196
3583.544, -0.6871949
3585.472, -4.3629251E-02
3587.401, 0.4950289
3589.329, 7.6188177E-02
3591.258, -0.1553742
3593.186, -1.6128600E-02
3595.115, 0.4693131
3597.043, 0.7962735
3598.972, 0.7719696
3600.900, 0.4744354
3602.829, 3.3110820E-02
3604.757, 0.5819645
3606.686, 0.7260959
3608.614, 0.3045256
3610.542, -9.8516867E-02
3612.471, 0.3528690
3614.399, 0.1729755
3616.328, 0.1682114
3618.256, 0.1700825
3620.185, 0.1824249
3622.113, 0.2312284
3624.042, 3.8282551E-02
3625.970, -0.4595133
3627.899, -0.1524193
3629.827, 0.3987240
3631.756, 0.5629903
3633.684, 0.2266834
3635.613, 0.3003028
3637.541, -0.4283018
3639.469, 0.2488424
3641.398, 0.7220525
3643.326, 0.1252536
3645.255, -0.2214201
3647.183, 0.5982512
3649.112, -0.1048162
3651.040, -7.1561359E-02
3652.969, 0.3088536
3654.897, 0.2143604
3656.826, 0.1759367
3658.754, 0.1485592
3660.683, 0.3800990
3662.611, 6.8010889E-02
3664.540, -0.1257241
3666.468, 0.1922654
3668.396, -0.3609464
3670.325, -0.3587680
3672.253, -0.1670892
3674.182, 3.6567409E-02
3676.110, 0.1119774
3678.039, 4.7098760E-02
3679.967, 1.7267540E-02
3681.896, -0.1183221
3683.824, -0.2008797
3685.753, -0.1604333
3687.681, -0.1089491
3689.610, 5.2514069E-02
3691.538, 0.7340813
3693.467, 3.5673290E-02
3695.395, -0.5619357
3697.323, -8.5419588E-02
3699.252, 5.3502180E-02
3701.180, -0.5452275
3703.109, 0.3393689
3705.037, -0.2684797
3706.966, 0.1149861
3708.894, 0.1432686
3710.823, -1.3166020E-02
3712.751, 8.7320641E-02
3714.680, 0.1628602
3716.608, 0.1153178
3718.537, -9.8671369E-02
3720.465, 0.2638851
3722.394, 0.3165222
3724.322, 9.1286287E-02
3726.250, 0.4326214
3728.179, 0.3671683
3730.107, 0.1769028
3732.036, 0.1523537
3733.964, 0.2028095
3735.893, -1.5253100E-02
3737.821, -0.3728951
3739.750, 0.1414215
3741.678, 0.7267858
3743.607, 0.4853104
3745.535, -0.3034650
3747.464, -0.4753788
3749.392, 5.0895080E-02
3751.321, 0.2985929
3753.249, 0.5317504
3755.177, 0.1705663
3757.106, 6.1162561E-02
3759.034, 0.2112598
3760.963, 0.3117820
3762.891, 0.2003381
3764.820, -2.6003851E-02
3766.748, 0.1306405
3768.677, -0.2474491
3770.605, 0.2381963
3772.534, 0.1543093
3774.462, -0.3745555
3776.391, 0.1378457
3778.319, 1.0548690E-02
3780.248, 5.2117210E-02
3782.176, 0.4095199
3784.104, 0.6052397
3786.033, 0.2579957
3787.961, -0.2461453
3789.890, -0.1430213
3791.818, 3.9672009E-03
3793.747, 0.1248224
3795.675, 0.5035877
3797.604, 0.6703809
3799.532, 0.3584732
3801.461, -6.8552777E-02
3803.389, -4.5068331E-02
3805.318, -8.0908023E-02
3807.246, 0.3263079
3809.175, 0.2624112
3811.103, 0.2371103
3813.031, 4.9291600E-02
3814.960, -0.2314247
3816.888, -2.4332650E-02
3818.817, -0.9222972
3820.745, 0.2485113
3822.674, 0.6392415
3824.602, 0.1308972
3826.531, -0.1803200
3828.459, 8.9607559E-02
3830.388, 0.4078254
3832.316, 0.2586326
3834.245, -0.3139456
3836.173, 0.5747823
3838.102, 0.3008049
3840.030, -0.1390629
3841.958, 2.7131191E-02
3843.887, 0.1257786
3845.815, 4.8104052E-02
3847.744, -0.6509276
3849.672, 0.5165223
3851.601, 0.3502672
3853.529, -0.2498511
3855.458, -0.1176073
3857.386, 0.3583903
3859.315, 0.2629260
3861.243, 0.7179000
3863.172, -0.2287275
3865.100, -0.2212812
3867.029, -0.1964104
3868.957, 9.7076133E-02
3870.885, 0.6353264
3872.814, 0.6946177
3874.742, -0.1561540
3876.671, -0.3288191
3878.599, 0.2631303
3880.528, -8.8082008E-02
3882.456, 5.8195628E-02
3884.385, 2.7173931E-02
3886.313, -0.3279499
3888.242, -9.2745923E-02
3890.170, -0.4760236
3892.099, 0.1234593
3894.027, -2.2402650E-02
3895.956, -0.4634104
3897.884, -0.7827535
3899.813, -6.6424653E-02
3901.741, 0.3518137
3903.669, 0.4879965
3905.598, -0.5026451
3907.526, -3.8222075E-02
3909.455, -0.1569079
3911.383, -0.2995279
3913.312, 0.3697091
3915.240, -0.4570546
3917.169, 0.1993075
3919.097, 0.3484248
3921.026, 3.3302572E-02
3922.954, -0.1565417
3924.883, -0.1159248
3926.811, -0.4035295
3928.740, 3.6872759E-02
3930.668, 0.3266931
3932.596, 0.2445488
3934.525, 0.1944227
3936.453, -0.1222323
3938.382, -0.2038784
3940.310, 8.8624537E-02
3942.239, 2.9689981E-02
3944.167, 1.1432420E-02
3946.096, 0.3634677
3948.024, 0.1327505
3949.953, -0.3105991
3951.881, 1.8333821E-02
3953.810, -4.8980471E-02
3955.738, 0.1904809
3957.667, -0.3376846
3959.595, 9.1364220E-02
3961.523, 0.1471301
3963.452, 2.8123850E-02
3965.380, 0.1087941
3967.309, 0.2313316
3969.237, 0.2453047
3971.166, 0.2196086
3973.094, 0.1714788
3975.023, -0.1437690
3976.951, 0.3436551
3978.880, 0.1933456
3980.808, -0.4486203
3982.737, -0.1123306
3984.665, 0.1282554
3986.594, -1.3363230E-03
3988.522, 0.1075959
3990.450, 0.1491971
3992.379, 0.1989152
3994.307, 0.3708502
3996.236, 0.4107709
3998.164, 0.6519495
4000.093, 3.5594489E-02
4002.021, -9.4671652E-02
4003.950, -8.8737505E-03
4005.878, 8.6462358E-03
4007.807, 0.1120726
4009.735, 0.3269996
4011.664, 0.5378240
4013.592, -0.2328616
4015.521, -0.3578927
4017.449, -0.2540044
4019.377, -0.2312222
4021.306, -0.1713493
4023.234, -6.3359529E-02
4025.163, 0.2245529
4027.091, 0.4679466
4029.020, 1.3351150E-02
4030.948, -0.1934150
4032.877, 0.4736463
4034.805, -3.5564601E-02
4036.734, 0.3022474
4038.662, 0.1430528
4040.591, 0.1563083
4042.519, 0.4217854
4044.448, 0.2366541
4046.376, -0.2372127
4048.304, -6.5041929E-02
4050.233, -0.2263121
4052.161, 0.3060666
4054.090, 0.4184329
4056.018, -0.3636345
4057.947, -0.4597232
4059.875, -0.2160875
4061.804, 0.1158938
4063.732, 0.2102278
4065.661, 6.6815548E-02
4067.589, 0.2034439
4069.518, -0.3966967
4071.446, -0.1648517
4073.375, -0.1452733
4075.303, -0.4164063
4077.231, 0.1228215
4079.160, 1.8138669E-02
4081.088, -0.3788033
4083.017, -0.4671703
4084.945, -0.1902143
4086.874, 0.2149054
4088.802, 0.2778871
4090.731, 0.3086537
4092.659, -0.6784219
4094.588, -8.8132564E-03
4096.516, -9.5157757E-02
4098.444, 2.6730770E-02
4100.373, 0.5243837
4102.301, -0.1511684
4104.230, -0.2375959
4106.158, -2.5008151E-03
4108.087, -0.6595266
4110.015, -0.2786387
4111.944, -0.5258205
4113.872, -0.2429553
4115.801, 0.3159696
4117.729, -2.2704670E-02
4119.658, -0.1170778
4121.586, -0.2858611
4123.515, 7.2137803E-02
4125.443, 0.2006081
4127.372, -2.7142441E-02
4129.300, 6.0778379E-02
4131.229, 0.4337779
4133.157, 0.3313849
4135.085, -0.5156400
4137.014, 0.1068456
4138.942, 0.1918589
4140.871, 3.7176199E-02
4142.799, -2.0450970E-02
4144.728, 9.4634883E-02
4146.656, 0.4025795
4148.584, -0.3060814
4150.513, -0.2090441
4152.441, 0.3969547
4154.370, 0.3599048
4156.298, 0.5139247
4158.227, 0.1017484
4160.155, 5.2980399E-03
4162.084, 2.7119089E-03
4164.012, -2.3544131E-02
4165.941, -0.1820800
4167.869, -0.2252352
4169.798, -0.5384056
4171.726, 1.4260160E-03
4173.655, -2.5147861E-02
4175.583, -0.1241471
4177.512, 0.3227682
4179.440, 4.2774551E-02
4181.369, -0.5527118
4183.297, 0.3011224
4185.226, 0.2687562
4187.154, 1.6571119E-02
4189.083, -2.1594411E-02
4191.011, -0.3580206
4192.939, 5.5559091E-02
4194.868, 0.3272367
4196.796, 0.1886537
4198.725, 0.7905849
4200.653, 0.1883375
4202.582, -5.9981351E-03
4204.510, 0.4286230
4206.438, 0.2458981
4208.367, -6.7266509E-02
4210.295, 7.3041250E-03
4212.224, -0.4214441
4214.152, -0.8335555
4216.081, 0.2766965
4218.009, -0.1931644
4219.938, 0.2314937
4221.866, 1.5850401E-02
4223.795, -6.1235350E-02
4225.723, -0.2104556
4227.652, -0.4766232
4229.580, 0.4842407
4231.509, 0.3140164
4233.437, 0.1601014
4235.366, -0.3705932
4237.294, -0.4300154
4239.223, 0.3680231
4241.151, 0.3735309
4243.080, 0.5341467
4245.008, 0.2777942
4246.937, -0.1956068
4248.865, -8.0519132E-02
4250.793, -0.4724796
4252.722, -0.3522006
4254.650, -0.1845819
4256.579, -0.3525229
4258.507, -0.5175780
4260.436, -0.2852276
4262.364, 4.1315321E-02
4264.292, 0.3793770
4266.221, 0.1514760
4268.149, -8.5152671E-02
4270.078, -0.4881955
4272.006, -0.1597316
4273.935, 0.2871048
4275.863, -0.2612710
4277.792, -0.2518477
4279.720, 0.1810900
4281.649, 0.9035861
4283.577, 0.3788655
4285.506, 5.9487451E-02
4287.434, 0.2536697
4289.363, 0.4299133
4291.291, -0.1019052
4293.220, 0.3000732
4295.148, -0.2303471
4297.077, 3.3113498E-02
4299.005, 0.2006043
4300.934, -0.8046706
4302.862, -0.5913732
4304.791, 0.2978038
4306.719, 0.1089478
4308.647, -3.9029211E-02
4310.576, -5.2249599E-02
4312.504, -0.3708887
4314.433, -0.3082454
4316.361, 0.1269563
4318.290, 0.2175567
4320.218, 0.1360357
4322.146, 0.3342935
4324.075, 0.2991955
4326.003, 3.5545070E-02
4327.932, -0.1190135
4329.860, 3.8079541E-02
4331.789, -0.3288975
4333.717, 0.2351643
4335.646, 0.1305308
4337.574, 0.5437393
4339.503, -0.4667569
4341.431, -0.2100967
4343.360, -0.2935415
4345.288, 5.3169731E-02
4347.217, 2.1280660E-03
4349.145, 0.2954610
4351.074, -5.5705208E-02
4353.002, -0.4206071
4354.931, -0.3003830
4356.859, -0.6027117
4358.788, -0.2224106
4360.716, -0.5319564
4362.645, -0.5507746
4364.573, 0.1172849
4366.501, -3.9582349E-02
4368.430, -0.4585989
4370.358, -8.3134035E-03
4372.287, 0.1364819
4374.215, -0.2551991
4376.144, -7.6948203E-02
4378.072, -0.2180557
4380.000, 0.5168856
4381.929, -1.1632030E-02
##END=



