##NAMES=Ilmenite
##LOCALITY=Faraday Property, Bancroft District, Ontario, Canada
##RRUFFID=R060149
##CHEMISTRY=Fe^2+^Ti^4+^O_3_
146.1893, 0.0000000E+00
146.6714, 9.0309996E-03
147.1535, 3.8773999E-02
147.6356, 0.2568150
148.1178, 0.6483840
148.5999, 0.9761600
149.0820, 1.076431
149.5641, 1.165865
150.0462, 1.503191
150.5283, 2.480219
151.0105, 3.303839
151.4926, 3.404222
151.9747, 2.846113
152.4568, 2.564438
152.9389, 2.822353
153.4210, 3.304991
153.9032, 3.576225
154.3853, 3.484226
154.8674, 3.277622
155.3495, 3.048340
155.8316, 2.858370
156.3137, 2.514214
156.7959, 1.782652
157.2780, 0.8908840
157.7601, 0.2704720
158.2422, 8.7932996E-02
158.7243, 0.1289440
159.2065, 0.3105580
159.6886, 0.7384590
160.1707, 1.091925
160.6528, 1.241268
161.1349, 1.242447
161.6170, 1.246923
162.0992, 1.496086
162.5813, 1.646666
163.0634, 1.457478
163.5455, 0.2875390
164.0276, 0.8715590
164.5097, 1.251789
164.9919, 1.445980
165.4740, 0.8962730
165.9561, 1.307831
166.4382, 0.9753820
166.9203, 1.383062
167.4024, 1.594227
167.8846, 1.623755
168.3667, 0.9049680
168.8488, 1.147392
169.3309, 1.004965
169.8130, 0.8469730
170.2952, 1.225317
170.7773, 0.6159420
171.2594, 0.9906920
171.7415, 0.9700510
172.2236, 1.128513
172.7057, 0.8996540
173.1879, 0.7906020
173.6700, 1.071581
174.1521, 1.135738
174.6342, 1.158360
175.1163, 1.337254
175.5984, 1.311411
176.0806, 1.086088
176.5627, 0.7544590
177.0448, 0.4251060
177.5269, 4.2004000E-02
178.0090, 0.3999060
178.4911, 0.6451030
178.9733, 0.7041420
179.4554, 1.9165000E-02
179.9375, 0.2952770
180.4196, 0.1864680
180.9017, 6.1992999E-02
181.3838, 0.4737930
181.8660, 0.1019990
182.3481, 0.3020800
182.8302, 0.3153500
183.3123, 0.5084780
183.7944, 0.3147140
184.2766, 0.2411230
184.7587, 0.5563010
185.2408, 0.6571310
185.7229, 0.4212630
186.2050, 0.6292990
186.6871, 4.5297999E-02
187.1693, 0.1567230
187.6514, 0.5681150
188.1335, 0.3526100
188.6156, 0.5681400
189.0977, 0.6194860
189.5798, 7.5263999E-02
190.0620, 0.5274810
190.5441, 0.5690820
191.0262, 3.4472000E-02
191.5083, 0.4077910
191.9904, 4.6326000E-02
192.4725, 0.4818340
192.9547, 0.7204510
193.4368, 0.7727640
193.9189, 8.0881000E-02
194.4010, 0.3499010
194.8831, 0.2338010
195.3652, 0.1018810
195.8474, 0.5060500
196.3295, 7.7738002E-02
196.8116, 0.3178690
197.2937, 0.3224640
197.7758, 0.5059680
198.2579, 0.3019560
198.7401, 0.2175810
199.2222, 0.5207810
199.7043, 0.6093250
200.1864, 0.3605500
200.6685, 0.5551990
201.1507, 4.2528000E-02
201.6328, 0.5030670
202.1149, 0.5407920
202.5970, 0.1968360
203.0791, 6.5241002E-02
203.5612, 0.2670940
204.0434, 0.6470200
204.5255, 0.8299410
205.0076, 0.8023660
205.4897, 0.6273190
205.9718, 0.2518460
206.4539, 0.4070850
206.9361, 0.7465530
207.4182, 0.6291370
207.9003, 0.1968100
208.3824, 9.5392004E-02
208.8645, 0.2070450
209.3466, 0.2863540
209.8288, 0.4544510
210.3109, 0.7668970
210.7930, 0.9136470
211.2751, 0.8087250
211.7572, 0.5336480
212.2393, 0.3906990
212.7215, 0.4209820
213.2036, 0.4959680
213.6857, 0.5146480
214.1678, 0.4126910
214.6499, 0.4562870
215.1320, 0.6933520
215.6142, 1.092438
216.0963, 1.560873
216.5784, 2.221392
217.0605, 2.724598
217.5426, 2.742060
218.0247, 1.935722
218.5069, 1.573019
218.9890, 1.918232
219.4711, 2.452288
219.9532, 3.033913
220.4353, 3.422737
220.9175, 3.600296
221.3996, 3.022163
221.8817, 3.412888
222.3638, 3.444466
222.8459, 3.477936
223.3280, 4.015757
223.8102, 3.547760
224.2923, 4.055510
224.7744, 4.205667
225.2565, 4.513428
225.7386, 4.436550
226.2207, 4.483177
226.7029, 4.897585
227.1850, 5.119621
227.6671, 4.212147
228.1492, 4.480497
228.6313, 4.822287
229.1134, 4.778418
229.5956, 4.023819
230.0777, 3.625051
230.5598, 3.786907
231.0419, 4.383657
231.5240, 4.808899
232.0062, 5.061226
232.4883, 5.146276
232.9704, 5.031303
233.4525, 4.555336
233.9346, 4.244400
234.4167, 4.213331
234.8989, 4.386612
235.3810, 4.390776
235.8631, 4.062742
236.3452, 3.781752
236.8273, 3.790369
237.3094, 4.286438
237.7916, 4.637173
238.2737, 4.760597
238.7558, 4.710197
239.2379, 4.713034
239.7200, 4.788397
240.2021, 4.889561
240.6843, 5.021013
241.1664, 5.333204
241.6485, 5.320862
242.1306, 4.774788
242.6127, 3.888605
243.0948, 3.446688
243.5770, 3.711464
244.0591, 4.057096
244.5412, 4.133051
245.0233, 3.701670
245.5054, 3.551397
245.9876, 3.851805
246.4697, 4.430723
246.9518, 4.736271
247.4339, 4.626455
247.9160, 4.454845
248.3981, 4.398352
248.8803, 4.545795
249.3624, 4.575331
249.8445, 4.362268
250.3266, 4.057787
250.8087, 4.125223
251.2908, 4.831207
251.7730, 5.477312
252.2551, 5.745424
252.7372, 5.548412
253.2193, 5.169006
253.7014, 4.455254
254.1835, 3.626705
254.6657, 3.221828
255.1478, 3.390953
255.6299, 3.716490
256.1120, 4.101503
256.5941, 4.694839
257.0763, 4.809912
257.5584, 4.181856
258.0405, 3.243484
258.5226, 2.947798
259.0047, 3.678556
259.4868, 4.251898
259.9690, 4.150005
260.4511, 3.185728
260.9332, 2.377371
261.4153, 1.655972
261.8974, 1.140076
262.3795, 1.144064
262.8617, 1.984877
263.3438, 2.574305
263.8259, 2.430399
264.3080, 1.378511
264.7901, 0.7433660
265.2722, 0.6980930
265.7544, 0.9320600
266.2365, 0.9534610
266.7186, 0.6761950
267.2007, 0.4220960
267.6828, 0.2901650
268.1649, 0.2836820
268.6471, 0.3347070
269.1292, 0.4843270
269.6113, 0.6280750
270.0934, 0.5970610
270.5755, 0.3178420
271.0576, 0.1514640
271.5398, 0.2435420
272.0219, 0.5837380
272.5040, 0.7823310
272.9861, 0.8281920
273.4682, 0.7549510
273.9503, 0.5291860
274.4325, 9.4002001E-02
274.9146, 0.1480730
275.3967, 8.4950002E-03
275.8788, 0.4358880
276.3610, 0.4996850
276.8431, 7.5304002E-02
277.3252, 0.4023040
277.8073, 0.4654010
278.2894, 6.5495998E-02
278.7715, 0.1637800
279.2537, 6.4010001E-03
279.7358, 0.4185830
280.2179, 0.6995070
280.7000, 0.1922510
281.1821, 0.1178840
281.6642, 0.2416500
282.1464, 0.3788130
282.6285, 3.8694002E-02
283.1106, 8.3857000E-02
283.5927, 0.1450100
284.0748, 0.3297330
284.5569, 0.1835350
285.0391, 0.2823910
285.5212, 0.3572640
286.0033, 0.6110040
286.4854, 0.4772150
286.9675, 0.4630530
287.4496, 0.8364280
287.9318, 0.9951380
288.4139, 0.8165190
288.8960, 1.081297
289.3781, 0.5537010
289.8602, 0.7213230
290.3423, 1.188862
290.8245, 1.029444
291.3066, 0.5251690
291.7887, 0.4738460
292.2708, 0.7159540
292.7529, 0.9370980
293.2350, 0.9052620
293.7172, 0.7147330
294.1993, 0.6669030
294.6814, 0.7901760
295.1635, 0.9868510
295.6456, 1.192129
296.1277, 1.384960
296.6099, 1.470333
297.0920, 1.265213
297.5741, 0.9503710
298.0562, 0.9568310
298.5383, 1.315527
299.0204, 1.667444
299.5026, 1.648558
299.9847, 0.9876100
300.4668, 1.451605
300.9489, 1.718693
301.4311, 1.799461
301.9132, 1.136005
302.3953, 1.433434
302.8774, 1.345718
303.3595, 1.242153
303.8416, 1.674685
304.3238, 1.119215
304.8059, 1.543133
305.2880, 1.576046
305.7701, 1.787836
306.2522, 1.612091
306.7343, 1.806276
307.2165, 1.691977
307.6986, 1.438482
308.1807, 1.385809
308.6628, 1.714989
309.1449, 2.104038
309.6270, 2.365891
310.1092, 2.498936
310.5913, 2.489822
311.0734, 2.067755
311.5555, 1.641426
312.0376, 1.637247
312.5197, 2.299963
313.0019, 2.928280
313.4840, 3.032953
313.9661, 2.825546
314.4482, 2.740128
314.9303, 3.190868
315.4124, 3.658195
315.8946, 3.749075
316.3767, 3.320463
316.8588, 3.017565
317.3409, 3.133860
317.8230, 3.521852
318.3051, 3.985237
318.7873, 4.730143
319.2694, 5.311026
319.7515, 5.505621
320.2336, 5.282349
320.7157, 4.970135
321.1978, 4.565010
321.6800, 4.158089
322.1621, 3.833370
322.6442, 3.508854
323.1263, 3.369286
323.6084, 3.475035
324.0905, 3.818962
324.5727, 4.301928
325.0548, 5.148117
325.5369, 5.973965
326.0190, 6.545919
326.5012, 6.776510
326.9833, 6.835367
327.4654, 6.584850
327.9475, 6.130156
328.4296, 5.898308
328.9117, 6.136333
329.3939, 6.380421
329.8760, 6.440733
330.3581, 6.235233
330.8402, 5.989237
331.3223, 5.686049
331.8044, 5.371397
332.2866, 5.083845
332.7687, 4.817509
333.2508, 4.543501
333.7329, 4.235704
334.2150, 3.869028
334.6971, 3.657166
335.1793, 3.654800
335.6614, 3.690237
336.1435, 3.555277
336.6256, 3.128544
337.1077, 2.816267
337.5898, 2.751673
338.0720, 2.923721
338.5541, 3.029480
339.0362, 3.066856
339.5183, 2.991320
340.0004, 2.697783
340.4825, 1.852972
340.9647, 2.170767
341.4468, 2.287855
341.9289, 2.238487
342.4110, 1.422649
342.8931, 1.589493
343.3752, 1.371771
343.8574, 1.139086
344.3395, 1.442133
344.8216, 0.7571450
345.3037, 1.052017
345.7858, 0.9558940
346.2679, 1.038666
346.7501, 0.7339190
347.2322, 1.086300
347.7143, 1.332129
348.1964, 1.391653
348.6785, 0.7069820
349.1607, 0.9829430
349.6428, 0.8735540
350.1249, 0.7488540
350.6070, 1.160257
351.0891, 0.5836910
351.5713, 0.9865360
352.0534, 0.9983810
352.5355, 1.192060
353.0176, 1.007557
353.4997, 0.9325940
353.9818, 1.243904
354.4640, 0.8179280
354.9461, 0.6155034
355.4282, 0.9340084
355.9103, 1.127379
356.3924, 1.202336
356.8745, 0.8042263
357.3567, 1.016991
357.8388, 0.9849421
358.3209, 0.9428530
358.8030, 1.241591
359.2851, 0.9122857
359.7672, 1.205618
360.2494, 1.126938
360.7315, 1.363912
361.2136, 1.535334
361.6957, 1.644735
362.1778, 1.506333
362.6599, 1.687917
363.1421, 1.741278
363.6242, 1.789370
364.1063, 2.015984
364.5884, 2.661282
365.0705, 3.259886
365.5526, 3.760321
366.0348, 4.050152
366.5169, 3.986242
366.9990, 3.596497
367.4811, 3.361145
367.9632, 3.449835
368.4453, 3.619127
368.9275, 3.732138
369.4096, 3.798344
369.8917, 3.792862
370.3738, 3.697359
370.8559, 3.529749
371.3380, 3.344267
371.8202, 3.155510
372.3023, 2.925615
372.7844, 2.626020
373.2665, 2.224005
373.7487, 1.887371
374.2308, 1.607492
374.7129, 1.401886
375.1950, 1.317514
375.6771, 1.411592
376.1592, 1.441128
376.6414, 1.320662
377.1235, 1.069288
377.6056, 0.8688010
378.0877, 0.7164800
378.5698, 0.6179750
379.0519, 0.6202300
379.5341, 0.7247960
380.0162, 0.6982650
380.4983, 0.4416690
380.9804, 0.1039050
381.4625, 7.9999998E-02
381.9446, 0.1321538
382.4268, 0.4011666
382.9089, 0.5450455
383.3910, 0.5705135
383.8731, 0.1229118
384.3552, 0.2861812
384.8373, 0.2046406
385.3195, 0.1130594
385.8016, 0.3623051
386.2837, -1.6488567E-02
386.7658, 0.2273523
387.2479, 0.2226494
387.7300, 0.3316982
388.2122, 0.1944241
388.6943, 0.1332328
389.1764, 0.5167900
389.6585, 0.6836640
390.1406, 0.6683920
390.6227, 0.3420540
391.1049, 4.0359002E-02
391.5870, 7.6603003E-02
392.0691, 0.3353210
392.5512, 0.4687310
393.0333, 0.1548160
393.5154, 0.2227250
393.9976, 0.3996870
394.4797, 0.2773130
394.9618, 0.1716860
395.4439, 0.2309650
395.9260, 0.3517740
396.4081, 0.3963640
396.8903, 0.1464060
397.3724, 5.1779998E-03
397.8545, 0.1640630
398.3366, 0.6426530
398.8188, 0.9506590
399.3009, 0.8666270
399.7830, 0.7266880
400.2651, 0.7527850
400.7472, 1.216604
401.2293, 1.428358
401.7115, 1.222830
402.1936, 0.7558060
402.6757, 0.5048270
403.1578, 0.5535390
403.6399, 0.6793270
404.1220, 0.8782460
404.6042, 1.091898
405.0863, 1.541025
405.5684, 1.793289
406.0505, 1.859251
406.5326, 1.181480
407.0147, 1.465130
407.4969, 1.363373
407.9790, 1.836222
408.4611, 1.792198
408.9432, 1.407297
409.4253, 0.6430150
409.9074, 3.5259001E-02
410.3896, 0.2215920
410.8717, 9.9600002E-04
411.3538, 0.2837350
411.8359, 0.6224440
412.3180, 0.8999820
412.8001, 0.8544120
413.2823, 0.5744040
413.7644, 0.4019240
414.2465, 0.7619460
414.7286, 1.218700
415.2107, 0.6715410
415.6928, 1.034424
416.1750, 1.200407
416.6571, 1.180098
417.1392, 0.4156070
417.6213, 0.6120050
418.1034, 0.3619040
418.5855, 8.5805997E-02
419.0677, 0.1711560
419.5498, 0.5270080
420.0319, 0.8107450
420.5140, 0.7947240
420.9961, 0.7296070
421.4782, 0.7973840
421.9604, 1.130520
422.4425, 1.305012
422.9246, 1.013174
423.4067, 0.5702210
423.8889, 0.4050480
424.3710, 0.9188180
424.8531, 1.350948
425.3352, 1.500637
425.8173, 1.367334
426.2994, 1.302576
426.7816, 1.370575
427.2637, 1.444103
427.7458, 1.427589
428.2279, 1.245985
428.7100, 1.166815
429.1921, 1.255632
429.6743, 1.424919
430.1564, 1.457140
430.6385, 1.323879
431.1206, 1.181084
431.6027, 1.043869
432.0848, 0.9132390
432.5670, 0.9884220
433.0491, 1.311329
433.5312, 1.682362
434.0133, 1.932394
434.4954, 2.059654
434.9775, 2.023598
435.4597, 1.737459
435.9418, 1.380072
436.4239, 1.283215
436.9060, 1.421999
437.3881, 1.621323
437.8702, 1.804710
438.3524, 1.969324
438.8345, 2.102243
439.3166, 2.199636
439.7987, 2.301800
440.2808, 2.431694
440.7629, 2.607210
441.2451, 2.812691
441.7272, 3.255047
442.2093, 3.563124
442.6914, 3.373352
443.1735, 2.781221
443.6556, 2.426609
444.1378, 2.730556
444.6199, 3.223185
445.1020, 3.643557
445.5841, 4.078953
446.0662, 4.190201
446.5483, 3.541182
447.0305, 2.598232
447.5126, 2.188511
447.9947, 2.934269
448.4768, 3.520872
448.9590, 3.584684
449.4411, 3.086477
449.9232, 2.760670
450.4053, 2.733274
450.8874, 2.745924
451.3695, 2.494717
451.8517, 1.807774
452.3338, 1.610876
452.8159, 2.167353
453.2980, 3.048986
453.7801, 3.336803
454.2622, 2.993574
454.7444, 2.590977
455.2265, 2.356274
455.7086, 2.274221
456.1907, 2.318439
456.6728, 2.504633
457.1549, 2.626835
457.6371, 2.455315
458.1192, 2.075407
458.6013, 1.678471
459.0834, 1.265816
459.5655, 0.9437770
460.0476, 0.8837410
460.5298, 1.020823
461.0119, 0.9295566
461.4940, 1.178301
461.9761, 1.301907
462.4582, 1.307103
462.9403, 0.8392286
463.4225, 0.9822194
463.9046, 0.8804060
464.3867, 0.7685565
464.8688, 0.9975296
465.3509, 0.5984645
465.8330, 1.260759
466.3152, 1.497345
466.7973, 1.548931
467.2794, 0.8641130
467.7615, 1.142408
468.2436, 1.015369
468.7257, 0.8795930
469.2079, 1.281082
469.6900, 0.4545616
470.1721, 0.8210716
470.6542, 1.062452
471.1363, 1.185416
471.6184, 0.8353181
472.1006, 1.096102
472.5827, 0.8041270
473.0648, 1.218767
473.5469, 1.435747
474.0291, 1.466358
474.5112, 0.7527260
474.9933, 1.000641
475.4754, 0.8736230
475.9575, 0.7564580
476.4396, 1.173391
476.9218, 1.085796
477.4039, 1.010246
477.8860, 0.8110140
478.3681, 0.6767750
478.8502, 0.6979790
479.3323, 0.7460170
479.8145, 0.7209720
480.2966, 0.6390250
480.7787, 0.5639080
481.2608, 0.5246070
481.7429, 0.4997180
482.2250, 0.4780370
482.7072, 0.4548890
483.1893, 0.4585110
483.6714, 0.4527296
484.1535, 0.7785709
484.6356, 0.9792738
485.1177, 1.061567
485.5999, 0.6708004
486.0820, 0.8908933
486.5641, 0.8661776
487.0462, 0.8314261
487.5283, 1.137497
488.0104, 0.2884450
488.4926, 7.0455998E-02
488.9747, 8.7736003E-02
489.4568, 3.4458000E-02
489.9389, 0.1106570
490.4210, 0.2927970
490.9031, 0.4724980
491.3853, 0.6557430
491.8674, 0.7344280
492.3495, 0.6368940
492.8316, 0.4835720
493.3137, 0.6181220
493.7958, 0.9978120
494.2780, 1.250607
494.7601, 1.015585
495.2422, 0.5539040
495.7243, 0.4134100
496.2064, 0.6309070
496.6885, 0.8214040
497.1707, 0.4691310
497.6528, 0.1249050
498.1349, 0.4603140
498.6170, 0.2229500
499.0992, 7.9620004E-02
499.5813, 0.1646880
500.0634, 0.1046560
500.5455, 7.9254001E-02
501.0276, 0.2003480
501.5097, 0.3201620
501.9919, 0.3437080
502.4740, 0.2320860
502.9561, 0.2650430
503.4382, 0.6800920
503.9203, 1.092299
504.4024, 1.229841
504.8846, 0.9474660
505.3667, 0.6740070
505.8488, 0.3752900
506.3309, 0.1368100
506.8130, 0.2107220
507.2951, 0.6913010
507.7773, 1.064335
508.2594, 1.141848
508.7415, 0.5533940
509.2236, 0.9941670
509.7057, 1.237959
510.1878, 1.295349
510.6700, 0.6084270
511.1521, 0.8846660
511.6342, 0.7733290
512.1163, 0.6460250
512.5984, 1.054726
513.0806, 0.4753400
513.5627, 0.8752590
514.0448, 0.8840600
514.5269, 1.047045
515.0090, 0.6096950
515.4911, 1.061932
515.9733, 1.317181
516.4554, 1.386023
516.9375, 0.7105580
517.4196, 0.9958840
517.9017, 0.8959640
518.3839, 0.7801230
518.8660, 1.200277
519.3481, 0.6323430
519.8302, 1.043701
520.3123, 1.172129
520.7944, 0.9315220
521.2766, 0.7723580
521.7587, 0.8066560
522.2408, 0.9730320
522.7229, 1.043947
523.2050, 1.020700
523.6871, 0.9000760
524.1693, 0.5732690
524.6514, 8.2957998E-02
525.1335, 1.4414000E-02
525.6156, 0.3316060
526.0977, 0.7422080
526.5798, 0.7586190
527.0620, 0.5244830
527.5441, 0.5066530
528.0262, 0.9324020
528.5083, 1.365425
528.9904, 1.202761
529.4725, 0.6796040
529.9547, 0.3429510
530.4368, 0.7269250
530.9189, 1.179068
531.4010, 1.267120
531.8831, 0.9790000
532.3652, 0.6298560
532.8474, 5.0205000E-02
533.3295, 0.3731980
533.8116, 0.3607790
534.2937, 0.6492000
534.7758, 1.177069
535.2579, 0.8238140
535.7401, 0.1526390
536.2222, 3.4042001E-02
536.7043, 0.8217390
537.1864, 1.312210
537.6685, 1.135973
538.1506, 0.4794030
538.6328, 0.2554000
539.1149, 0.5266720
539.5970, 0.8288960
540.0791, 0.8226150
540.5612, 0.5926900
541.0433, 0.6138020
541.5255, 0.9392870
542.0076, 1.165003
542.4897, 0.6224710
542.9718, 0.2785320
543.4539, 0.6624530
543.9360, 3.1530000E-03
544.4182, 0.7419010
544.9003, 0.6013870
545.3824, 4.6797000E-02
545.8645, 0.3795510
546.3466, 0.3528710
546.8287, 1.098518
547.3109, 1.314178
547.7930, 0.9643840
548.2751, 0.7098560
548.7572, 0.8092210
549.2393, 0.9025020
549.7214, 0.7743610
550.2036, 0.2248120
550.6857, 9.6643001E-02
551.1678, 0.1380710
551.6499, 2.9400000E-04
552.1320, 0.3702790
552.6141, 1.074955
553.0963, 1.315018
553.5784, 0.7123870
554.0605, 0.3023070
554.5426, 0.5469360
555.0247, 6.6574000E-02
555.5068, 0.5075660
555.9890, 0.8909760
556.4711, 1.147861
556.9532, 1.320192
557.4353, 1.346117
557.9174, 1.343521
558.3995, 1.433559
558.8817, 1.536552
559.3638, 1.468790
559.8459, 1.093277
560.3281, 0.8400140
560.8102, 1.002653
561.2923, 1.386251
561.7744, 1.532604
562.2565, 1.136436
562.7386, 0.8180870
563.2208, 0.7211860
563.7029, 0.7949700
564.1850, 0.9289340
564.6671, 1.168461
565.1492, 1.406874
565.6313, 1.664202
566.1135, 1.921549
566.5956, 1.860888
567.0777, 1.217339
567.5598, 1.539243
568.0419, 1.736007
568.5240, 1.814363
569.0062, 1.419661
569.4883, 1.635815
569.9704, 1.607165
570.4525, 1.829435
570.9346, 1.634781
571.4167, 1.416391
571.8989, 1.209301
572.3810, 1.137623
572.8631, 1.445772
573.3452, 2.046926
573.8273, 2.366159
574.3094, 1.872953
574.7916, 1.282442
575.2737, 0.9996030
575.7558, 1.177645
576.2379, 1.281013
576.7200, 1.204571
577.2021, 1.123825
577.6843, 1.215776
578.1664, 1.554247
578.6485, 1.843809
579.1306, 2.072750
579.6127, 2.219542
580.0948, 2.237673
580.5770, 2.126711
581.0591, 1.933348
581.5412, 1.570305
582.0233, 1.195627
582.5054, 1.206532
582.9875, 1.565517
583.4697, 1.992641
583.9518, 2.374702
584.4339, 2.655285
584.9160, 2.777645
585.3981, 2.735968
585.8802, 2.548664
586.3624, 1.992666
586.8445, 1.410034
587.3266, 1.117983
587.8087, 1.574266
588.2908, 1.822294
588.7729, 1.510262
589.2551, 0.9866910
589.7372, 0.8668690
590.2193, 1.398432
590.7014, 1.836437
591.1835, 1.981112
591.6656, 1.899363
592.1478, 1.768984
592.6299, 1.528732
593.1120, 1.405197
593.5941, 1.713896
594.0762, 2.263107
594.5583, 2.227497
595.0405, 1.545786
595.5226, 0.8972280
596.0047, 0.9633260
596.4868, 0.6048180
596.9689, 1.567162
597.4510, 2.090679
597.9332, 2.197853
598.4153, 0.6409420
598.8974, 1.231976
599.3795, 0.9629330
599.8616, 0.6586000
600.3438, 1.552042
600.8259, 0.2070690
601.3080, 1.027235
601.7901, 1.015356
602.2722, 1.416466
602.7543, 0.9510520
603.2365, 0.7376790
603.7186, 1.369854
604.2007, 1.557302
604.6828, 0.9928700
605.1649, 1.419691
605.6470, 7.5623997E-02
606.1292, 0.2856140
606.6113, 1.166119
607.0934, 0.6454580
607.5755, 1.088305
608.0576, 1.161180
608.5398, 0.4481960
609.0219, 0.8391270
609.5040, 0.9582730
609.9861, 1.568293
610.4683, 1.335028
610.9504, 0.5833740
611.4325, 1.0710000E-02
611.9146, 0.2740800
612.3967, 0.3224300
612.8788, 0.1134170
613.3610, 0.9394530
613.8431, 1.152811
614.3252, 0.5696680
614.8073, 0.3982110
615.2894, 0.9261990
615.7715, 1.037937
616.2537, 0.5135540
616.7358, 8.2685001E-02
617.2179, 0.1817490
617.7000, 0.4814590
618.1821, 0.4170880
618.6642, 0.7435360
619.1464, 0.2887000
619.6285, 0.8809890
620.1106, 1.057026
620.5927, 0.4301570
621.0748, 0.2304120
621.5569, 3.0323001E-02
622.0391, 0.2049450
622.5212, 0.7581460
623.0033, 0.4868760
623.4854, 0.4572050
623.9675, 0.5274790
624.4496, 0.9977890
624.9318, 0.6021230
625.4139, 0.4740140
625.8960, 1.212336
626.3781, 1.468683
626.8602, 0.9736140
627.3423, 1.469830
627.8245, 0.1952130
628.3066, 0.4746890
628.7887, 1.424742
629.2708, 0.9736820
629.7529, 0.5712800
630.2350, 0.4256950
630.7172, 0.3508260
631.1993, 0.3771360
631.6814, 0.4559080
632.1635, 0.5426960
632.6456, 0.6560610
633.1277, 0.8272710
633.6099, 1.231356
634.0920, 1.517771
634.5741, 1.449631
635.0562, 1.153173
635.5383, 1.126076
636.0204, 1.623541
636.5026, 2.036268
636.9847, 2.135403
637.4668, 1.949125
637.9489, 1.971684
638.4310, 2.259356
638.9131, 2.505323
639.3953, 2.498545
639.8774, 2.274275
640.3595, 1.916407
640.8416, 1.409235
641.3237, 1.050190
641.8058, 1.218250
642.2880, 1.678738
642.7701, 2.133614
643.2522, 2.584290
643.7343, 2.849859
644.2164, 2.685368
644.6985, 2.334406
645.1807, 2.122730
645.6628, 2.183662
646.1449, 2.312191
646.6270, 2.502148
647.1091, 2.733885
647.5912, 2.962790
648.0734, 3.214252
648.5555, 3.390617
649.0376, 3.424395
649.5197, 3.366407
650.0018, 3.415808
650.4839, 3.573109
650.9661, 3.874519
651.4482, 4.626627
651.9303, 5.442225
652.4124, 5.455479
652.8945, 4.653582
653.3766, 4.049316
653.8588, 4.587250
654.3409, 5.444506
654.8230, 5.894278
655.3051, 5.623312
655.7872, 5.488600
656.2693, 5.852219
656.7515, 6.337643
657.2336, 6.568192
657.7158, 6.360647
658.1979, 6.294044
658.6800, 6.418596
659.1621, 6.694122
659.6442, 7.109507
660.1263, 7.665487
660.6085, 8.101400
661.0906, 8.277021
661.5727, 8.355812
662.0548, 8.691544
662.5369, 9.205072
663.0190, 9.595190
663.5012, 9.488359
663.9833, 9.362333
664.4654, 9.635832
664.9475, 10.26890
665.4296, 10.87709
665.9117, 11.39804
666.3939, 11.79050
666.8760, 12.06636
667.3581, 12.19404
667.8402, 12.26414
668.3223, 12.13282
668.8044, 12.17229
669.2866, 12.79192
669.7687, 14.02341
670.2508, 14.78026
670.7329, 14.94446
671.2150, 14.96708
671.6971, 15.46606
672.1793, 16.21532
672.6614, 16.69185
673.1435, 16.63342
673.6256, 16.54179
674.1077, 16.91844
674.5898, 17.51923
675.0720, 17.87220
675.5541, 17.47103
676.0362, 17.23589
676.5183, 17.52235
677.0004, 18.16200
677.4825, 18.45041
677.9647, 18.09743
678.4468, 17.96435
678.9289, 18.46739
679.4110, 19.37930
679.8931, 19.56403
680.3752, 18.98660
680.8574, 18.41761
681.3395, 18.59674
681.8216, 19.05305
682.3037, 18.70416
682.7858, 17.59523
683.2679, 16.49996
683.7501, 15.83938
684.2322, 15.47231
684.7143, 15.36182
685.1964, 15.57905
685.6785, 15.56116
686.1606, 14.86277
686.6428, 14.08658
687.1249, 13.68476
687.6070, 13.95419
688.0891, 13.90841
688.5712, 13.46041
689.0533, 12.83734
689.5355, 12.21206
690.0176, 11.59381
690.4997, 11.39214
690.9818, 11.80616
691.4639, 12.30136
691.9460, 12.10258
692.4282, 11.44366
692.9103, 10.81940
693.3924, 10.47493
693.8745, 10.14017
694.3566, 9.650112
694.8387, 9.070734
695.3209, 8.541084
695.8030, 7.885723
696.2851, 7.491964
696.7672, 7.555626
697.2493, 7.979408
697.7314, 8.144312
698.2136, 8.011000
698.6957, 7.742641
699.1778, 7.364794
699.6599, 6.909752
700.1420, 6.551388
700.6241, 6.285236
701.1063, 6.003969
701.5884, 5.690596
702.0705, 5.372688
702.5526, 5.126003
703.0347, 4.937632
703.5168, 4.712812
703.9990, 4.231449
704.4811, 3.501995
704.9632, 3.864604
705.4453, 4.034535
705.9274, 4.022336
706.4095, 3.271716
706.8917, 3.482861
707.3738, 3.313641
707.8560, 3.132257
708.3381, 3.489107
708.8202, 2.864436
709.3023, 3.220013
709.7844, 3.189338
710.2665, 3.340703
710.7487, 3.109289
711.2308, 3.000834
711.7129, 3.282473
712.1950, 3.353713
712.6771, 3.092257
713.1592, 3.276598
713.6414, 2.674486
714.1235, 2.769269
714.6056, 3.166774
715.0877, 2.942775
715.5698, 3.152208
716.0519, 3.201546
716.5341, 2.510535
717.0162, 3.139738
717.4983, 3.316711
717.9804, 3.118376
718.4625, 2.574247
718.9446, 2.183521
719.4268, 2.327621
719.9089, 2.675190
720.3910, 2.835590
720.8731, 2.823814
721.3552, 2.709774
721.8373, 2.456125
722.3195, 2.173317
722.8016, 1.870840
723.2837, 1.556190
723.7658, 1.442444
724.2479, 1.715775
724.7300, 1.943840
725.2122, 1.909483
725.6943, 1.608624
726.1764, 1.333570
726.6585, 1.067717
727.1406, 0.9159890
727.6227, 1.041426
728.1049, 1.325653
728.5870, 1.490904
729.0691, 1.514307
729.5512, 1.478750
730.0333, 1.372145
730.5154, 0.9205150
730.9976, 1.360656
731.4797, 1.604516
731.9618, 1.662639
732.4439, 0.9787247
732.9260, 1.252997
733.4081, 1.143273
733.8903, 1.017800
734.3724, 1.426934
734.8545, 0.8509482
735.3366, 1.251603
735.8187, 1.262401
736.3008, 1.451628
736.7830, 1.254483
737.2651, 1.176678
737.7472, 1.485365
738.2293, 1.234453
738.7114, 1.298096
739.1935, 1.276665
739.6757, 1.042446
740.1578, 0.8565900
740.6399, 0.8425620
741.1220, 0.9072090
741.6041, 0.8816030
742.0862, 0.7028960
742.5684, 0.5669990
743.0505, 0.4903350
743.5326, 0.4872680
744.0147, 0.6895810
744.4968, 1.064775
744.9789, 1.177855
745.4611, 0.6705740
745.9432, 6.5029003E-02
746.4253, 0.1599920
746.9074, 0.7121700
747.3895, 1.092186
747.8716, 0.9450450
748.3538, 0.6442990
748.8359, 0.2493380
749.3180, 0.1893810
749.8001, 0.4440380
750.2822, 0.4511740
750.7643, 0.3691180
751.2465, 0.1896990
751.7286, 3.6215000E-02
752.2107, 2.1097001E-02
752.6928, 0.3696980
753.1749, 0.5955390
753.6570, 0.4060990
754.1392, 2.7849000E-02
754.6213, 0.5347960
755.1034, 1.074156
755.5855, 1.396406
756.0676, 1.305847
756.5498, 1.014439
757.0319, 0.4966490
757.5140, 0.2497810
757.9962, 0.5262110
758.4783, 0.1215440
758.9604, 0.6292190
759.4425, 0.3903200
759.9246, 0.5623910
760.4067, 0.8667260
760.8889, 0.4594060
761.3710, 3.6339000E-02
761.8531, 0.1269720
762.3352, 4.2440002E-03
762.8173, 9.8569999E-03
763.2994, 0.1254750
763.7816, 0.2724110
764.2637, 0.3893600
764.7458, 0.4595550
765.2279, 0.4704570
765.7100, 0.4200310
766.1921, 0.3021070
766.6743, 1.9772001E-02
767.1564, 0.2411540
767.6385, 9.9003002E-02
768.1206, 0.4761450
768.6027, 0.7223760
769.0848, 0.5909770
769.5670, 0.4032000
770.0491, 0.5122260
770.5312, 0.7629360
771.0133, 0.8345450
771.4954, 0.6782440
771.9775, 0.4671040
772.4597, 0.2388650
772.9418, 4.8719000E-02
773.4239, 4.9245998E-02
773.9060, 4.9879998E-03
774.3881, 1.6214000E-02
774.8702, 6.0729999E-02
775.3524, 0.1387630
775.8345, 0.1378270
776.3166, 5.0322998E-02
776.7987, 2.5630999E-02
777.2808, 8.2556002E-02
777.7629, 0.1342720
778.2451, 0.1811560
778.7272, 0.2365440
779.2093, 0.3559700
779.6914, 0.5846650
780.1735, 0.7140830
780.6556, 0.4317590
781.1378, 8.7853998E-02
781.6199, 3.1610001E-02
782.1020, 0.5798720
782.5841, 0.9835340
783.0662, 1.214334
783.5483, 1.331364
784.0305, 1.387220
784.5126, 1.381369
784.9947, 1.332663
785.4768, 1.240444
785.9589, 1.121376
786.4410, 1.013382
786.9232, 0.8886760
787.4053, 0.6489280
787.8874, 0.1491720
788.3695, 0.1294730
788.8516, 0.2979640
789.3337, 0.9467540
789.8159, 1.261053
790.2980, 0.9752460
790.7801, 0.7343540
791.2622, 0.5061360
791.7443, 0.3934440
792.2264, 0.6242140
792.7086, 1.172077
793.1907, 1.520741
793.6728, 1.569773
794.1549, 1.483955
794.6370, 1.401209
795.1191, 1.313797
795.6013, 1.201468
796.0834, 1.020159
796.5655, 0.8924220
797.0476, 0.9506930
797.5297, 1.042759
798.0118, 0.9742470
798.4940, 0.6371020
798.9761, 0.3799190
799.4582, 0.2202890
799.9403, 0.1577660
800.4224, 0.1942770
800.9045, 0.3268950
801.3867, 0.5572130
801.8688, 0.9118520
802.3509, 1.261801
802.8330, 1.487350
803.3151, 1.622839
803.7972, 1.721106
804.2794, 1.883453
804.7615, 1.866028
805.2436, 1.423080
805.7258, 0.8835640
806.2079, 0.5825440
806.6900, 0.5438190
807.1721, 0.6838890
807.6542, 1.057852
808.1364, 1.438257
808.6185, 1.410278
809.1006, 1.131376
809.5827, 1.102978
810.0648, 1.518503
810.5469, 1.844828
811.0291, 1.493273
811.5112, 0.9618420
811.9933, 0.8269370
812.4754, 1.746904
812.9575, 2.123194
813.4396, 1.531124
813.9218, 0.7216610
814.4039, 0.6373630
814.8860, 1.340641
815.3681, 1.699947
815.8502, 1.556618
816.3323, 1.264917
816.8145, 1.077127
817.2966, 0.9858020
817.7787, 0.9433980
818.2608, 0.9682920
818.7429, 1.081810
819.2250, 1.421520
819.7072, 1.741787
820.1893, 1.799320
820.6714, 1.415380
821.1535, 1.159800
821.6356, 1.045179
822.1177, 1.028004
822.5999, 1.081367
823.0820, 1.197563
823.5641, 1.359549
824.0462, 1.582781
824.5283, 1.704012
825.0104, 1.429779
825.4926, 1.048857
825.9747, 0.8867740
826.4568, 1.054438
826.9389, 1.231920
827.4210, 1.436327
827.9031, 1.553635
828.3853, 1.413797
828.8674, 0.8433150
829.3495, 1.015646
829.8316, 2.116516
830.3137, 3.171545
830.7958, 3.002132
831.2780, 2.127895
831.7601, 1.708416
832.2422, 1.882935
832.7243, 2.082878
833.2064, 1.778244
833.6885, 1.489889
834.1707, 1.698473
834.6528, 2.663704
835.1349, 3.218103
835.6170, 3.251377
836.0991, 3.058348
836.5812, 2.789289
837.0634, 2.448734
837.5455, 2.056625
838.0276, 1.606125
838.5097, 1.300308
838.9918, 1.366421
839.4739, 1.606524
839.9561, 1.848188
840.4382, 2.075422
840.9203, 2.222521
841.4024, 2.117157
841.8845, 2.078165
842.3666, 2.293592
842.8488, 2.755075
843.3309, 3.017521
843.8130, 3.068752
844.2951, 2.989935
844.7772, 2.757221
845.2593, 2.449724
845.7415, 2.246271
846.2236, 2.128992
846.7057, 2.073326
847.1878, 2.043303
847.6699, 2.062948
848.1520, 2.148890
848.6342, 2.300814
849.1163, 2.517044
849.5984, 2.947197
850.0805, 3.207859
850.5626, 3.104170
851.0447, 2.722544
851.5269, 2.492466
852.0090, 2.404240
852.4911, 2.301687
852.9732, 1.965342
853.4553, 1.721157
853.9374, 2.050684
854.4196, 2.702250
854.9017, 3.055651
855.3839, 2.581625
855.8660, 2.214888
856.3481, 2.171915
856.8302, 2.328007
857.3123, 2.417006
857.7944, 2.436029
858.2766, 2.439352
858.7587, 2.435797
859.2408, 2.410742
859.7229, 2.377594
860.2050, 2.299023
860.6871, 2.068743
861.1693, 1.316345
861.6514, 0.9426770
862.1335, 1.724619
862.6156, 2.882927
863.0977, 3.346365
863.5798, 2.854034
864.0620, 2.420572
864.5441, 2.113871
865.0262, 1.878450
865.5083, 1.573593
865.9904, 1.297228
866.4725, 1.419945
866.9547, 2.083626
867.4368, 2.707926
867.9189, 2.920307
868.4010, 2.876841
868.8831, 2.692991
869.3652, 2.267836
869.8474, 2.147793
870.3295, 2.427227
870.8116, 2.735474
871.2937, 2.832186
871.7758, 2.732025
872.2579, 2.569809
872.7401, 2.348110
873.2222, 2.059414
873.7043, 1.553946
874.1864, 1.072548
874.6685, 0.8502540
875.1506, 0.9056910
875.6328, 1.107897
876.1149, 1.736744
876.5970, 2.157503
877.0791, 2.041319
877.5612, 1.463730
878.0433, 1.208120
878.5255, 1.273367
879.0076, 1.379227
879.4897, 1.393045
879.9718, 1.332031
880.4539, 1.137520
880.9360, 0.8741970
881.4182, 0.7654270
881.9003, 1.155312
882.3824, 1.435511
882.8645, 1.228001
883.3466, 0.7862340
883.8287, 0.8058910
884.3109, 1.388926
884.7930, 1.875671
885.2751, 2.117739
885.7572, 2.133591
886.2393, 1.765593
886.7214, 1.211966
887.2036, 0.9597050
887.6857, 1.442694
888.1678, 1.812851
888.6499, 1.537870
889.1320, 1.004822
889.6141, 0.7366330
890.0963, 0.8748420
890.5784, 0.9562660
891.0605, 0.8917430
891.5426, 0.8042470
892.0247, 0.8989070
892.5068, 1.104523
892.9890, 1.138836
893.4711, 0.9449370
893.9532, 0.8799270
894.4353, 1.413919
894.9174, 2.040348
895.3995, 2.312935
895.8817, 2.118835
896.3638, 1.811146
896.8459, 1.307613
897.3280, 0.8721100
897.8101, 0.6971470
898.2922, 0.7406010
898.7744, 0.8226220
899.2565, 0.9339850
899.7386, 0.9777850
900.2207, 0.7098770
900.7028, 0.5049440
901.1849, 0.3377095
901.6671, 0.9362541
902.1492, 1.305869
902.6313, 1.458891
903.1134, 0.7465659
903.5955, 1.151658
904.0776, 1.108931
904.5598, 1.047870
905.0419, 1.610225
905.5240, 1.023764
906.0062, 1.576262
906.4883, 0.2452700
906.9704, 0.4571550
907.4525, 0.7005870
907.9346, 0.6519430
908.4167, 5.2492000E-02
908.8989, 0.4394790
909.3810, 0.7820860
909.8631, 1.001499
910.3452, 1.121975
910.8273, 1.144888
911.3094, 1.071953
911.7916, 0.8928660
912.2737, 0.7134300
912.7558, 0.5814150
913.2379, 0.5160680
913.7200, 0.5832870
914.2021, 0.8699920
914.6843, 0.9290440
915.1664, 0.4379630
915.6485, 8.7231003E-02
916.1306, 0.3475290
916.6127, 1.161543
917.0948, 1.514594
917.5770, 1.408954
918.0591, 1.247551
918.5412, 1.278234
919.0233, 1.393447
919.5054, 1.610043
919.9875, 1.840655
920.4697, 1.747845
920.9518, 0.7267410
921.4339, 9.7220000E-03
921.9160, 4.8755001E-02
922.3981, 0.3094200
922.8802, 0.5114370
923.3624, 0.5583190
923.8445, 0.5190220
924.3266, 0.3837180
924.8087, 0.2508280
925.2908, 0.2878830
925.7729, 0.3582210
926.2551, 0.2230220
926.7372, 0.5159300
927.2193, 0.8352610
927.7014, 0.4288780
928.1835, 0.1963820
928.6656, 0.6233220
929.1478, 0.8521060
929.6299, 0.8567110
930.1120, 0.6179430
930.5941, 0.4652810
931.0762, 0.8642150
931.5583, 1.384892
932.0405, 1.483545
932.5226, 1.119975
933.0047, 0.9573980
933.4868, 1.532699
933.9689, 1.834283
934.4510, 1.340068
934.9332, 0.2941770
935.4153, 4.7621999E-02
935.8974, 0.5631940
936.3795, 1.083669
936.8616, 1.263836
937.3438, 1.283394
937.8259, 1.286345
938.3080, 1.270080
938.7901, 1.229803
939.2722, 1.204191
939.7543, 1.078211
940.2365, 0.7475330
940.7186, 0.4220070
941.2007, 0.4927650
941.6828, 0.9087110
942.1649, 1.030071
942.6470, 0.7463120
943.1292, 0.3699340
943.6113, 4.1418999E-02
944.0934, 0.1462430
944.5755, 6.6505998E-02
945.0576, 0.3513280
945.5397, 0.7451430
946.0219, 1.245280
946.5040, 1.450700
946.9861, 1.003632
947.4682, 6.6965997E-02
947.9503, 0.3029030
948.4324, 0.1625750
948.9146, 2.9333999E-02
949.3967, 4.5609001E-02
949.8788, 0.1217780
950.3609, 0.1039760
950.8430, 0.4896100
951.3251, 0.5781120
951.8073, 4.8085999E-02
952.2894, 0.2263980
952.7715, 9.5990002E-02
953.2536, 0.3055690
953.7357, 0.9112870
954.2179, 1.619549
954.7000, 1.979475
955.1821, 1.837485
955.6642, 1.624950
956.1464, 1.722178
956.6285, 1.835393
957.1106, 1.655962
957.5927, 1.064487
958.0748, 0.6478070
958.5569, 0.4317320
959.0391, 0.3191060
959.5212, 0.2155770
960.0033, 0.1692120
960.4854, 0.4031830
960.9675, 0.8641720
961.4496, 1.243659
961.9318, 1.312922
962.4139, 1.330014
962.8960, 1.471034
963.3781, 1.654294
963.8602, 1.611660
964.3423, 1.275695
964.8245, 0.9944180
965.3066, 0.8779940
965.7887, 0.8367790
966.2708, 0.6695910
966.7529, 0.4868630
967.2350, 0.6461240
967.7172, 1.421552
968.1993, 1.844150
968.6814, 1.148716
969.1635, 0.3019900
969.6456, 2.4691001E-02
970.1277, 0.2140310
970.6099, 0.5031760
971.0920, 0.8669610
971.5741, 0.2842170
972.0562, 0.2748410
972.5383, 0.6368210
973.0204, 0.8124640
973.5026, 0.2400070
973.9847, 0.6318540
974.4668, 1.123469
974.9489, 0.7412180
975.4310, 0.6409690
975.9131, 0.6810460
976.3953, 0.8215480
976.8774, 1.238553
977.3595, 1.458665
977.8416, 1.492452
978.3237, 0.7820160
978.8058, 1.032476
979.2880, 0.8901160
979.7701, 0.7281960
980.2522, 1.443874
980.7343, 1.777570
981.2164, 0.9128030
981.6985, 2.4506999E-02
982.1807, 0.1185790
982.6628, 0.3110470
983.1449, 0.5683390
983.6270, 0.6799830
984.1091, 0.8103790
984.5912, 1.236783
985.0734, 1.465250
985.5555, 0.9743860
986.0376, 0.1574410
986.5197, 7.2105996E-02
987.0018, 1.077053
987.4839, 1.565724
987.9661, 1.192768
988.4482, 0.5165540
988.9303, 4.4801001E-02
989.4124, 0.4628440
989.8945, 0.7736050
990.3766, 0.8980630
990.8588, 0.2783290
991.3409, 0.6194920
991.8230, 0.5755240
992.3051, 0.5157350
992.7872, 0.9902690
993.2693, 0.4716350
993.7515, 0.9393630
994.2336, 1.016105
994.7157, 1.591548
995.1978, 2.136553
995.6799, 1.737370
996.1620, 0.8080710
996.6442, 0.3185040
997.1263, 1.080880
997.6084, 1.535082
998.0905, 1.459859
998.5726, 1.119320
999.0547, 0.7388850
999.5369, 0.3640120
1000.019, 0.3426720
1000.501, 0.7311820
1000.983, 1.158330
1001.465, 1.440984
1001.947, 1.577219
1002.430, 1.530992
1002.912, 1.308873
1003.394, 1.211969
1003.876, 1.300899
1004.358, 1.291858
1004.840, 0.9869540
1005.322, 0.6185400
1005.804, 0.7367330
1006.287, 1.176719
1006.769, 1.457921
1007.251, 1.257314
1007.733, 1.051612
1008.215, 1.047316
1008.697, 1.080840
1009.179, 0.9721900
1009.661, 0.6852300
1010.143, 0.6362910
1010.626, 0.8825410
1011.108, 1.126081
1011.590, 1.076355
1012.072, 0.9165950
1012.554, 0.8151480
1013.036, 0.7772720
1013.518, 0.7552790
1014.000, 0.7142460
1014.483, 0.7453440
1014.965, 0.9187770
1015.447, 1.116623
1015.929, 1.092242
1016.411, 0.4122820
1016.893, 0.7937260
1017.375, 0.9774340
1017.857, 0.9743190
1018.339, 0.2290780
1018.822, 0.4453570
1019.304, 0.2767300
1019.786, 9.2321001E-02
1020.268, 0.4440540
1020.750, 0.1921330
1021.232, 1.640736
1021.714, 1.827841
1022.196, 1.352030
1022.679, 0.7356870
1023.161, 0.1142260
1023.643, 0.1139600
1024.125, 0.6537400
1024.607, 1.203201
1025.089, 1.285059
1025.571, 1.130480
1026.053, 1.006544
1026.535, 0.9247840
1027.018, 1.050462
1027.500, 1.422733
1027.982, 1.580700
1028.464, 0.6787940
1028.946, 0.2067210
1029.428, 1.8825000E-02
1029.910, 1.308810
1030.392, 1.796058
1030.875, 1.185675
1031.357, 0.6818300
1031.839, 0.7481490
1032.321, 1.100627
1032.803, 1.357127
1033.285, 1.491548
1033.767, 1.425159
1034.249, 0.9976320
1034.731, 0.6439680
1035.214, 0.4688350
1035.696, 0.4050650
1036.178, 0.4137780
1036.660, 0.4947750
1037.142, 0.6685190
1037.624, 0.9271010
1038.106, 1.135306
1038.588, 1.082408
1039.071, 1.052417
1039.553, 1.348232
1040.035, 1.843265
1040.517, 2.129419
1040.999, 2.134729
1041.481, 2.040941
1041.963, 1.837080
1042.445, 1.645283
1042.927, 1.761566
1043.410, 1.963963
1043.892, 1.733350
1044.374, 0.9408580
1044.856, 0.3302800
1045.338, 0.2583420
1045.820, 0.3586330
1046.302, 0.5179290
1046.784, 0.7115200
1047.266, 0.7928490
1047.749, 0.7747650
1048.231, 0.8378760
1048.713, 1.165451
1049.195, 1.399446
1049.677, 1.157163
1050.159, 0.6936380
1050.641, 0.3448610
1051.123, 0.1064270
1051.606, 9.7735003E-02
1052.088, 0.3794620
1052.570, 0.6706720
1053.052, 0.6523610
1053.534, 0.5427490
1054.016, 0.8829660
1054.498, 1.559178
1054.980, 1.972365
1055.463, 1.676250
1055.945, 1.315345
1056.427, 0.9914440
1056.909, 0.7373620
1057.391, 0.6234680
1057.873, 0.6544080
1058.355, 0.7541610
1058.837, 0.9393650
1059.319, 1.074191
1059.802, 1.030510
1060.284, 0.9075100
1060.766, 0.7053330
1061.248, 0.4480940
1061.730, 0.5141760
1062.212, 0.9957080
1062.694, 1.374626
1063.176, 1.423859
1063.658, 1.330294
1064.141, 1.330507
1064.623, 1.403512
1065.105, 1.544589
1065.587, 1.952979
1066.069, 1.929037
1066.551, 1.176204
1067.033, 0.3711870
1067.515, 1.2503000E-02
1067.998, 3.6961999E-02
1068.480, 5.5411998E-02
1068.962, 0.2386430
1069.444, 0.3666610
1069.926, 0.2287670
1070.408, 0.1604410
1070.890, 0.4570140
1071.372, 0.8584220
1071.854, 0.9441750
1072.337, 0.6749750
1072.819, 0.4564290
1073.301, 0.3236850
1073.783, 0.3011120
1074.265, 0.5815820
1074.747, 0.8631490
1075.229, 0.7597270
1075.711, 0.2880030
1076.193, 6.3602999E-02
1076.676, 0.2392990
1077.158, 0.3472770
1077.640, 0.2318970
1078.122, 7.1912996E-02
1078.604, 0.1618580
1079.086, 0.4526550
1079.568, 0.8606110
1080.051, 1.456670
1080.533, 1.821720
1081.015, 1.593642
1081.497, 1.317245
1081.979, 1.307035
1082.461, 1.487687
1082.943, 1.276577
1083.425, 0.7436160
1083.907, 0.4341630
1084.390, 0.7768110
1084.872, 1.176916
1085.354, 1.335112
1085.836, 1.282906
1086.318, 1.056708
1086.800, 0.5414840
1087.282, 0.4106180
1087.764, 0.7151270
1088.246, 1.042511
1088.729, 1.004684
1089.211, 0.8537430
1089.693, 0.9522150
1090.175, 1.232633
1090.657, 1.398792
1091.139, 1.402751
1091.621, 1.246833
1092.103, 0.8333400
1092.586, 0.4662690
1093.068, 0.7254230
1093.550, 1.305829
1094.032, 1.450896
1094.514, 1.070857
1094.996, 0.7196710
1095.478, 0.5972440
1095.960, 0.6149320
1096.443, 0.7800180
1096.925, 1.029432
1097.407, 1.210373
1097.889, 1.316135
1098.371, 1.274933
1098.853, 1.028697
1099.335, 0.7769530
1099.817, 0.2000220
1100.299, 3.6819998E-02
1100.781, 0.5578840
1101.264, 0.8822440
1101.746, 1.020187
1102.228, 0.4139870
1102.710, 0.7687190
1103.192, 0.7387950
1103.674, 0.7146020
1104.156, 1.205538
1104.638, 0.7076110
1105.121, 1.189267
1105.603, 1.280718
1106.085, 1.124906
1106.567, 1.002612
1107.049, 0.7643680
1107.531, 0.5844740
1108.013, 0.4658280
1108.495, 0.4377100
1108.978, 0.4755030
1109.460, 0.4824440
1109.942, 0.4334410
1110.424, 0.3243210
1110.906, 0.1122070
1111.388, 9.4800003E-02
1111.870, 0.2562860
1112.352, 0.3058500
1112.834, 0.2410980
1113.317, 1.392255
1113.799, 2.052303
1114.281, 1.002337
1114.763, 7.9209998E-02
1115.245, 0.3739580
1115.727, 0.1016950
1116.209, 0.3098590
1116.691, 0.8529820
1117.173, 1.157400
1117.656, 1.134181
1118.138, 0.9215350
1118.620, 0.4527120
1119.102, 1.4021000E-02
1119.584, 0.2456210
1120.066, 0.2389440
1120.548, 0.1485340
1121.030, 3.0791000E-02
1121.513, 0.2666100
1121.995, 0.5678230
1122.477, 0.8861230
1122.959, 1.358294
1123.441, 1.751685
1123.923, 1.663450
1124.405, 0.6933580
1124.887, 0.2935580
1125.370, 0.7002460
1125.852, 1.065714
1126.334, 0.7645680
1126.816, 0.1799250
1127.298, 0.1220280
1127.780, 0.4336750
1128.262, 0.7374570
1128.744, 0.9750620
1129.226, 1.089467
1129.709, 1.062738
1130.191, 0.9494770
1130.673, 0.7101890
1131.155, 0.4517400
1131.637, 0.6031710
1132.119, 1.060608
1132.601, 1.256697
1133.083, 0.5471220
1133.566, 3.3174999E-02
1134.048, 7.4876003E-02
1134.530, 0.1318560
1135.012, 0.2223740
1135.494, 0.2090010
1135.976, 0.2880130
1136.458, 9.0899998E-03
1136.940, 0.5045610
1137.422, 0.8020460
1137.905, 0.9133060
1138.387, 0.2802850
1138.869, 0.6081820
1139.351, 0.5509320
1139.833, 0.4778690
1140.315, 0.9409020
1140.797, 0.4159700
1141.279, 1.039852
1141.761, 0.6253100
1142.244, 0.1159940
1142.726, 9.6463002E-02
1143.208, 5.1130001E-03
1143.690, 0.2244300
1144.172, 0.5977960
1144.654, 0.8852930
1145.136, 1.043764
1145.618, 0.9944490
1146.101, 6.4437002E-02
1146.583, 0.4731020
1147.065, 0.8137370
1147.547, 0.9680980
1148.029, 0.3782660
1148.511, 0.7501410
1148.993, 0.7381970
1149.475, 0.7109880
1149.958, 1.217387
1150.440, 1.399917
1150.922, 1.502125
1151.404, 1.356284
1151.886, 0.7858110
1152.368, 0.3974760
1152.850, 0.2463370
1153.332, 0.2413790
1153.814, 0.3962100
1154.297, 0.6190840
1154.779, 0.6151280
1155.261, 0.4827350
1155.743, 0.4963210
1156.225, 0.9900040
1156.707, 1.298747
1157.189, 1.405651
1157.671, 0.4744110
1158.153, 0.9476860
1158.636, 1.224105
1159.118, 1.314170
1159.600, 0.6600170
1160.082, 0.9667570
1160.564, 0.3933000
1161.046, 0.2388290
1161.528, 0.2879100
1162.010, 1.094392
1162.493, 1.036948
1162.975, 0.2984030
1163.457, 0.1800620
1163.939, 0.7060830
1164.421, 1.263731
1164.903, 1.667102
1165.385, 1.815543
1165.867, 1.526214
1166.349, 1.047753
1166.832, 0.7905430
1167.314, 0.7324110
1167.796, 0.5411070
1168.278, 0.1747320
1168.760, 2.9800000E-02
1169.242, 0.6411900
1169.724, 1.294763
1170.206, 1.630938
1170.688, 1.690178
1171.171, 1.368017
1171.653, 0.6716680
1172.135, 0.3215970
1172.617, 0.4787060
1173.099, 0.7350790
1173.581, 0.8946320
1174.063, 0.9661760
1174.545, 0.9145380
1175.028, 0.7776050
1175.510, 0.7035080
1175.992, 0.6893210
1176.474, 0.7556270
1176.956, 0.9461520
1177.438, 1.042076
1177.920, 0.7701800
1178.402, 0.3916580
1178.885, 0.1019160
1179.367, 8.9074001E-02
1179.849, 1.7527999E-02
1180.331, 0.3414980
1180.813, 0.6459830
1181.295, 0.7932400
1181.777, 0.8021580
1182.259, 0.5634100
1182.741, 0.2768630
1183.224, 0.2014380
1183.706, 0.3859770
1184.188, 0.3760190
1184.670, 0.1220730
1185.152, 4.7251001E-02
1185.634, 0.4374700
1186.116, 0.9218020
1186.598, 1.210183
1187.081, 1.264383
1187.563, 0.9395660
1188.045, 4.3706998E-02
1188.527, 0.3772740
1189.009, 0.2642240
1189.491, 1.6224001E-02
1189.973, 0.2813330
1190.455, 0.5266280
1190.938, 0.8569180
1191.420, 1.162445
1191.902, 1.267327
1192.384, 1.131458
1192.866, 0.7803450
1193.348, 0.1086930
1193.830, 0.2702050
1194.312, 0.3332680
1194.794, 1.211304
1195.276, 1.361945
1195.759, 1.097004
1196.241, 1.070495
1196.723, 1.649484
1197.205, 1.811115
1197.687, 1.474063
1198.169, 1.027877
1198.651, 0.7115460
1199.133, 0.5119690
1199.616, 0.4178460
1200.098, 0.4278710
1200.580, 0.5514090
1201.062, 0.8830460
1201.544, 1.166137
1202.026, 1.406291
1202.508, 1.513201
1202.990, 1.303605
1203.473, 0.9877390
1203.955, 0.8475210
1204.437, 0.8505960
1204.919, 0.7904830
1205.401, 0.6012640
1205.883, 0.4046090
1206.365, 0.1642740
1206.847, 0.1167430
1207.329, 0.7138270
1207.812, 1.454817
1208.294, 1.660254
1208.776, 1.414237
1209.258, 1.168254
1209.740, 0.9550270
1210.222, 0.8201550
1210.704, 0.7800160
1211.186, 0.7656500
1211.668, 0.7311200
1212.151, 0.6632550
1212.633, 0.5085920
1213.115, 0.2933920
1213.597, 0.1703930
1214.079, 0.1276000
1214.561, 0.2483920
1215.043, 0.5712890
1215.525, 0.9473000
1216.008, 1.382423
1216.490, 1.662589
1216.972, 1.386076
1217.454, 0.6386080
1217.936, 0.1841030
1218.418, 9.8513998E-02
1218.900, 0.1762090
1219.382, 0.4603540
1219.865, 0.7892180
1220.347, 1.068747
1220.829, 1.260662
1221.311, 1.308759
1221.793, 1.236746
1222.275, 1.099742
1222.757, 0.8626380
1223.239, 0.7384220
1223.721, 0.7631750
1224.203, 0.9255340
1224.686, 1.369152
1225.168, 1.829967
1225.650, 2.072401
1226.132, 2.055943
1226.614, 1.771456
1227.096, 1.156684
1227.578, 0.6712240
1228.061, 0.4132170
1228.543, 0.3130180
1229.025, 0.4082050
1229.507, 0.5425000
1229.989, 0.5517400
1230.471, 0.4419830
1230.953, 0.3761950
1231.435, 0.3601130
1231.917, 0.3103250
1232.400, 0.1844710
1232.882, 0.1383070
1233.364, 0.5005490
1233.846, 0.8661010
1234.328, 0.7289400
1234.810, 0.2149080
1235.292, 0.2850620
1235.774, 0.9805330
1236.256, 1.226200
1236.739, 0.6569320
1237.221, 0.1335310
1237.703, 0.6026520
1238.185, 1.272039
1238.667, 1.468549
1239.149, 1.288529
1239.631, 1.119528
1240.113, 0.9695380
1240.596, 1.061040
1241.078, 1.516471
1241.560, 1.832952
1242.042, 1.337606
1242.524, 0.8523980
1243.006, 1.084316
1243.488, 1.764512
1243.970, 1.759791
1244.453, 1.165804
1244.935, 0.8122120
1245.417, 0.9029430
1245.899, 0.9240760
1246.381, 0.3231340
1246.863, 0.1946690
1247.345, 0.2186830
1247.827, 0.1203560
1248.309, 0.5116470
1248.792, 0.9400010
1249.274, 1.052744
1249.756, 0.7193190
1250.238, 0.4117770
1250.720, 0.2839480
1251.202, 0.3462650
1251.684, 0.7110430
1252.166, 1.166515
1252.648, 1.036825
1253.131, 0.5507560
1253.613, 0.4457110
1254.095, 0.9544940
1254.577, 1.290229
1255.059, 1.117520
1255.541, 0.8728660
1256.023, 0.6772140
1256.505, 0.5410590
1256.988, 0.5035300
1257.470, 0.5368570
1257.952, 0.5297790
1258.434, 0.4237380
1258.916, 0.7225460
1259.398, 1.887686
1259.880, 2.492867
1260.362, 1.891331
1260.844, 0.8223560
1261.327, 0.3565860
1261.809, 0.2877390
1262.291, 0.3731380
1262.773, 0.6007110
1263.255, 0.5616390
1263.737, 8.7563999E-02
1264.219, 7.2624996E-02
1264.701, 0.4302020
1265.183, 1.029039
1265.666, 0.8477250
1266.148, 0.4608660
1266.630, 0.6015690
1267.112, 1.359570
1267.594, 1.871243
1268.076, 2.156031
1268.558, 2.103453
1269.040, 1.594066
1269.523, 1.107420
1270.005, 1.180077
1270.487, 1.432458
1270.969, 1.554806
1271.451, 1.527002
1271.933, 1.142181
1272.415, 0.4129180
1272.897, 0.1173420
1273.380, 0.5058420
1273.862, 0.9884970
1274.344, 1.195264
1274.826, 1.208212
1275.308, 1.243401
1275.790, 1.267200
1276.272, 1.435671
1276.754, 1.683885
1277.236, 1.652500
1277.719, 1.238942
1278.201, 0.7451560
1278.683, 5.3840000E-02
1279.165, 0.3154680
1279.647, 0.1090030
1280.129, 0.4620070
1280.611, 1.160847
1281.093, 1.822595
1281.576, 1.894482
1282.058, 1.256125
1282.540, 0.7575550
1283.022, 0.5241980
1283.504, 0.6871340
1283.986, 1.512305
1284.468, 2.417880
1284.950, 2.536008
1285.432, 2.166512
1285.915, 1.699216
1286.397, 1.192807
1286.879, 0.8570600
1287.361, 0.6415290
1287.843, 0.8489280
1288.325, 1.712603
1288.807, 2.476369
1289.289, 2.044415
1289.771, 1.230664
1290.254, 0.8699030
1290.736, 0.8335740
1291.218, 0.8741860
1291.700, 0.9768100
1292.182, 1.189361
1292.664, 1.552818
1293.146, 1.786211
1293.628, 1.551373
1294.111, 1.184657
1294.593, 0.8580770
1295.075, 0.5983650
1295.557, 0.4642040
1296.039, 0.4479700
1296.521, 0.5297870
1297.003, 0.7127640
1297.485, 0.7960890
1297.968, 0.5709020
1298.450, 0.3224230
1298.932, 7.7661999E-02
1299.414, 3.1734001E-02
1299.896, 0.3461600
1300.378, 0.9934360
1300.860, 0.8737480
1301.342, 0.4446140
1301.824, 0.0000000E+00
##END=



