PE IR       RAMAN       SPECTRUM    ASCII       PEDS        1.60        
  -1
LACTOSE.ASC
00/04/27
14:42:16.00
00/04/27
14:42:16.00

Lactose  (4 cm-1, 256, medium, 400 mW)
200.000000
256









2000,4.07    
INGAAS
RAM_DPY2
QUARTZ

0.100000
1
4.000000
MEDIUM
SINGLE
RAMAN
MAGN 0

DOUBLE

COMBINED
1
0
0


1.000000
SINGLE BEAM


1
0
TRUE
39836
1
 0
NONE
NONE
15600
21.200000
8.170999
39835
TRUE
1 0 0 0 0 0 0 0 

15798.010000
9394.690000
400.000000




#HDR
-1
-1
#GR
CM-1
INT
0.00100000000000000000
0.0
3600.000000
-1.000000
3401
8
30.149912
0.001716
#DATA
3600.000000	0.009799  
3599.000000	0.014162  
3598.000000	0.022315  
3597.000000	0.029373  
3596.000000	0.030779  
3595.000000	0.028276  
3594.000000	0.026798  
3593.000000	0.025629  
3592.000000	0.021553  
3591.000000	0.019145  
3590.000000	0.026488  
3589.000000	0.041961  
3588.000000	0.056529  
3587.000000	0.065374  
3586.000000	0.066471  
3585.000000	0.054192  
3584.000000	0.028681  
3583.000000	0.005722  
3582.000000	0.001716  
3581.000000	0.014805  
3580.000000	0.032091  
3579.000000	0.046133  
3578.000000	0.053811  
3577.000000	0.051999  
3576.000000	0.046634  
3575.000000	0.048828  
3574.000000	0.052165  
3573.000000	0.039482  
3572.000000	0.018930  
3571.000000	0.019073  
3570.000000	0.040340  
3569.000000	0.053691  
3568.000000	0.052905  
3567.000000	0.058364  
3566.000000	0.067877  
3565.000000	0.060701  
3564.000000	0.046539  
3563.000000	0.052571  
3562.000000	0.068545  
3561.000000	0.065684  
3560.000000	0.055408  
3559.000000	0.066971  
3558.000000	0.088596  
3557.000000	0.089764  
3556.000000	0.077819  
3555.000000	0.076341  
3554.000000	0.078511  
3553.000000	0.069046  
3552.000000	0.059938  
3551.000000	0.063991  
3550.000000	0.067305  
3549.000000	0.060391  
3548.000000	0.059890  
3547.000000	0.072884  
3546.000000	0.080728  
3545.000000	0.077247  
3544.000000	0.083208  
3543.000000	0.107002  
3542.000000	0.128912  
3541.000000	0.135326  
3540.000000	0.135922  
3539.000000	0.140309  
3538.000000	0.145030  
3537.000000	0.148630  
3536.000000	0.157618  
3535.000000	0.173759  
3534.000000	0.187444  
3533.000000	0.188684  
3532.000000	0.181150  
3531.000000	0.180006  
3530.000000	0.191760  
3529.000000	0.204825  
3528.000000	0.210857  
3527.000000	0.219511  
3526.000000	0.235676  
3525.000000	0.243711  
3524.000000	0.236868  
3523.000000	0.233864  
3522.000000	0.242638  
3521.000000	0.243592  
3520.000000	0.231599  
3519.000000	0.229763  
3518.000000	0.240516  
3517.000000	0.235700  
3516.000000	0.213813  
3515.000000	0.207304  
3514.000000	0.220489  
3513.000000	0.222587  
3512.000000	0.208830  
3511.000000	0.203680  
3510.000000	0.204157  
3509.000000	0.185465  
3508.000000	0.158333  
3507.000000	0.156426  
3506.000000	0.176286  
3505.000000	0.188684  
3504.000000	0.193476  
3503.000000	0.207042  
3502.000000	0.219631  
3501.000000	0.214290  
3500.000000	0.204086  
3499.000000	0.208139  
3498.000000	0.217533  
3497.000000	0.217199  
3496.000000	0.214242  
3495.000000	0.217175  
3494.000000	0.217580  
3493.000000	0.212979  
3492.000000	0.218582  
3491.000000	0.238871  
3490.000000	0.255060  
3489.000000	0.253057  
3488.000000	0.242257  
3487.000000	0.237703  
3486.000000	0.242066  
3485.000000	0.250291  
3484.000000	0.260138  
3483.000000	0.272417  
3482.000000	0.284624  
3481.000000	0.290608  
3480.000000	0.289130  
3479.000000	0.289392  
3478.000000	0.297951  
3477.000000	0.307393  
3476.000000	0.309610  
3475.000000	0.311279  
3474.000000	0.318717  
3473.000000	0.322794  
3472.000000	0.318908  
3471.000000	0.321865  
3470.000000	0.339245  
3469.000000	0.355529  
3468.000000	0.363111  
3467.000000	0.378894  
3466.000000	0.407862  
3465.000000	0.426959  
3464.000000	0.425696  
3463.000000	0.422906  
3462.000000	0.428247  
3461.000000	0.430631  
3460.000000	0.434875  
3459.000000	0.459671  
3458.000000	0.494313  
3457.000000	0.509214  
3456.000000	0.508952  
3455.000000	0.521397  
3454.000000	0.541615  
3453.000000	0.545167  
3452.000000	0.542831  
3451.000000	0.562334  
3450.000000	0.593876  
3449.000000	0.609493  
3448.000000	0.614595  
3447.000000	0.629520  
3446.000000	0.646781  
3445.000000	0.652599  
3444.000000	0.660920  
3443.000000	0.687432  
3442.000000	0.718188  
3441.000000	0.735354  
3440.000000	0.746297  
3439.000000	0.763726  
3438.000000	0.783324  
3437.000000	0.797724  
3436.000000	0.810074  
3435.000000	0.822544  
3434.000000	0.829577  
3433.000000	0.829887  
3432.000000	0.832176  
3431.000000	0.843787  
3430.000000	0.860953  
3429.000000	0.874090  
3428.000000	0.881648  
3427.000000	0.893402  
3426.000000	0.915431  
3425.000000	0.938987  
3424.000000	0.956511  
3423.000000	0.978946  
3422.000000	1.017332  
3421.000000	1.059293  
3420.000000	1.085233  
3419.000000	1.096987  
3418.000000	1.107645  
3417.000000	1.120018  
3416.000000	1.134562  
3415.000000	1.160168  
3414.000000	1.195001  
3413.000000	1.221895  
3412.000000	1.240038  
3411.000000	1.269960  
3410.000000	1.312875  
3409.000000	1.345515  
3408.000000	1.366090  
3407.000000	1.397585  
3406.000000	1.436734  
3405.000000	1.455807  
3404.000000	1.459884  
3403.000000	1.483917  
3402.000000	1.531052  
3401.000000	1.570892  
3400.000000	1.598072  
3399.000000	1.635837  
3398.000000	1.687622  
3397.000000	1.737904  
3396.000000	1.789164  
3395.000000	1.851773  
3394.000000	1.912236  
3393.000000	1.954245  
3392.000000	1.991534  
3391.000000	2.049565  
3390.000000	2.127647  
3389.000000	2.207899  
3388.000000	2.280139  
3387.000000	2.341103  
3386.000000	2.384972  
3385.000000	2.413558  
3384.000000	2.437210  
3383.000000	2.457141  
3382.000000	2.463245  
3381.000000	2.454614  
3380.000000	2.440500  
3379.000000	2.419662  
3378.000000	2.380681  
3377.000000	2.327013  
3376.000000	2.277970  
3375.000000	2.244162  
3374.000000	2.217555  
3373.000000	2.188444  
3372.000000	2.159571  
3371.000000	2.138781  
3370.000000	2.124786  
3369.000000	2.107167  
3368.000000	2.083206  
3367.000000	2.064967  
3366.000000	2.058172  
3365.000000	2.050471  
3364.000000	2.036738  
3363.000000	2.035665  
3362.000000	2.055788  
3361.000000	2.075839  
3360.000000	2.081775  
3359.000000	2.090167  
3358.000000	2.107548  
3357.000000	2.113485  
3356.000000	2.106332  
3355.000000	2.116513  
3354.000000	2.151536  
3353.000000	2.180671  
3352.000000	2.190399  
3351.000000	2.202820  
3350.000000	2.227020  
3349.000000	2.244806  
3348.000000	2.251291  
3347.000000	2.261829  
3346.000000	2.276706  
3345.000000	2.283883  
3344.000000	2.289485  
3343.000000	2.304911  
3342.000000	2.316474  
3341.000000	2.308678  
3340.000000	2.297377  
3339.000000	2.302479  
3338.000000	2.309966  
3337.000000	2.297806  
3336.000000	2.273869  
3335.000000	2.256822  
3334.000000	2.241945  
3333.000000	2.216029  
3332.000000	2.182650  
3331.000000	2.151989  
3330.000000	2.123737  
3329.000000	2.096295  
3328.000000	2.074027  
3327.000000	2.056956  
3326.000000	2.037620  
3325.000000	2.013969  
3324.000000	1.993370  
3323.000000	1.980900  
3322.000000	1.969981  
3321.000000	1.949429  
3320.000000	1.917672  
3319.000000	1.886343  
3318.000000	1.864576  
3317.000000	1.845669  
3316.000000	1.819944  
3315.000000	1.793098  
3314.000000	1.775145  
3313.000000	1.760816  
3312.000000	1.741647  
3311.000000	1.723814  
3310.000000	1.712536  
3309.000000	1.698088  
3308.000000	1.678347  
3307.000000	1.671385  
3306.000000	1.681804  
3305.000000	1.685905  
3304.000000	1.672458  
3303.000000	1.662802  
3302.000000	1.668787  
3301.000000	1.671409  
3300.000000	1.659178  
3299.000000	1.647281  
3298.000000	1.644349  
3297.000000	1.640439  
3296.000000	1.636242  
3295.000000	1.643586  
3294.000000	1.653933  
3293.000000	1.645731  
3292.000000	1.623678  
3291.000000	1.612257  
3290.000000	1.615071  
3289.000000	1.615738  
3288.000000	1.610612  
3287.000000	1.606249  
3286.000000	1.598191  
3285.000000	1.582193  
3284.000000	1.571869  
3283.000000	1.576972  
3282.000000	1.581954  
3281.000000	1.571536  
3280.000000	1.555967  
3279.000000	1.551246  
3278.000000	1.554512  
3277.000000	1.558446  
3276.000000	1.566052  
3275.000000	1.576876  
3274.000000	1.580810  
3273.000000	1.576232  
3272.000000	1.574420  
3271.000000	1.579093  
3270.000000	1.578974  
3269.000000	1.566052  
3268.000000	1.547336  
3267.000000	1.533675  
3266.000000	1.524615  
3265.000000	1.510500  
3264.000000	1.492166  
3263.000000	1.487302  
3262.000000	1.505136  
3261.000000	1.526284  
3260.000000	1.529240  
3259.000000	1.521992  
3258.000000	1.522040  
3257.000000	1.523327  
3256.000000	1.512908  
3255.000000	1.499032  
3254.000000	1.492452  
3253.000000	1.483774  
3252.000000	1.465439  
3251.000000	1.452398  
3250.000000	1.456642  
3249.000000	1.466774  
3248.000000	1.471424  
3247.000000	1.476788  
3246.000000	1.486682  
3245.000000	1.491737  
3244.000000	1.488590  
3243.000000	1.485443  
3242.000000	1.483821  
3241.000000	1.477313  
3240.000000	1.470208  
3239.000000	1.473116  
3238.000000	1.480889  
3237.000000	1.479268  
3236.000000	1.470398  
3235.000000	1.466941  
3234.000000	1.468205  
3233.000000	1.467442  
3232.000000	1.471590  
3231.000000	1.487016  
3230.000000	1.500773  
3229.000000	1.501631  
3228.000000	1.500344  
3227.000000	1.506352  
3226.000000	1.508641  
3225.000000	1.502776  
3224.000000	1.506328  
3223.000000	1.523828  
3222.000000	1.530933  
3221.000000	1.514434  
3220.000000	1.494479  
3219.000000	1.489853  
3218.000000	1.493072  
3217.000000	1.492786  
3216.000000	1.491570  
3215.000000	1.491141  
3214.000000	1.483702  
3213.000000	1.466274  
3212.000000	1.449656  
3211.000000	1.446652  
3210.000000	1.455283  
3209.000000	1.460313  
3208.000000	1.453614  
3207.000000	1.445174  
3206.000000	1.442766  
3205.000000	1.434469  
3204.000000	1.409888  
3203.000000	1.384472  
3202.000000	1.377391  
3201.000000	1.381611  
3200.000000	1.381587  
3199.000000	1.379251  
3198.000000	1.379156  
3197.000000	1.371097  
3196.000000	1.350378  
3195.000000	1.330113  
3194.000000	1.315975  
3193.000000	1.298832  
3192.000000	1.283740  
3191.000000	1.289582  
3190.000000	1.309418  
3189.000000	1.312327  
3188.000000	1.291775  
3187.000000	1.271319  
3186.000000	1.260280  
3185.000000	1.244449  
3184.000000	1.222109  
3183.000000	1.206159  
3182.000000	1.194190  
3181.000000	1.173806  
3180.000000	1.151895  
3179.000000	1.141786  
3178.000000	1.133632  
3177.000000	1.109457  
3176.000000	1.075673  
3175.000000	1.051592  
3174.000000	1.039981  
3173.000000	1.031851  
3172.000000	1.025319  
3171.000000	1.022076  
3170.000000	1.017546  
3169.000000	1.009225  
3168.000000	1.001262  
3167.000000	0.992894  
3166.000000	0.977683  
3165.000000	0.960373  
3164.000000	0.955581  
3163.000000	0.965309  
3162.000000	0.974225  
3161.000000	0.971126  
3160.000000	0.959086  
3159.000000	0.943446  
3158.000000	0.923418  
3157.000000	0.899100  
3156.000000	0.876522  
3155.000000	0.861501  
3154.000000	0.851511  
3153.000000	0.838208  
3152.000000	0.821208  
3151.000000	0.811481  
3150.000000	0.812220  
3149.000000	0.808596  
3148.000000	0.791549  
3147.000000	0.774550  
3146.000000	0.767779  
3145.000000	0.757503  
3144.000000	0.734233  
3143.000000	0.714397  
3142.000000	0.710248  
3141.000000	0.709080  
3140.000000	0.702166  
3139.000000	0.701498  
3138.000000	0.709128  
3137.000000	0.706887  
3136.000000	0.690817  
3135.000000	0.678372  
3134.000000	0.672435  
3133.000000	0.657320  
3132.000000	0.633883  
3131.000000	0.621128  
3130.000000	0.621271  
3129.000000	0.619769  
3128.000000	0.616216  
3127.000000	0.619459  
3126.000000	0.620198  
3125.000000	0.604963  
3124.000000	0.585317  
3123.000000	0.581049  
3122.000000	0.587582  
3121.000000	0.588798  
3120.000000	0.584626  
3119.000000	0.580859  
3118.000000	0.571084  
3117.000000	0.551915  
3116.000000	0.536990  
3115.000000	0.536894  
3114.000000	0.542449  
3113.000000	0.541949  
3112.000000	0.537991  
3111.000000	0.536894  
3110.000000	0.536608  
3109.000000	0.532698  
3108.000000	0.525808  
3107.000000	0.518488  
3106.000000	0.510954  
3105.000000	0.502443  
3104.000000	0.494480  
3103.000000	0.490498  
3102.000000	0.488543  
3101.000000	0.480127  
3100.000000	0.464653  
3099.000000	0.457382  
3098.000000	0.467967  
3097.000000	0.481677  
3096.000000	0.482106  
3095.000000	0.477695  
3094.000000	0.481271  
3093.000000	0.482773  
3092.000000	0.468134  
3091.000000	0.445413  
3090.000000	0.426864  
3089.000000	0.409221  
3088.000000	0.393462  
3087.000000	0.395131  
3086.000000	0.415396  
3085.000000	0.431108  
3084.000000	0.430703  
3083.000000	0.428581  
3082.000000	0.433063  
3081.000000	0.432705  
3080.000000	0.423622  
3079.000000	0.419211  
3078.000000	0.424337  
3077.000000	0.427579  
3076.000000	0.422859  
3075.000000	0.415420  
3074.000000	0.406789  
3073.000000	0.396990  
3072.000000	0.395107  
3071.000000	0.405931  
3070.000000	0.415754  
3069.000000	0.413155  
3068.000000	0.409817  
3067.000000	0.419187  
3066.000000	0.430655  
3065.000000	0.426816  
3064.000000	0.411200  
3063.000000	0.399279  
3062.000000	0.394487  
3061.000000	0.389385  
3060.000000	0.381159  
3059.000000	0.373435  
3058.000000	0.369620  
3057.000000	0.370669  
3056.000000	0.375533  
3055.000000	0.380539  
3054.000000	0.381398  
3053.000000	0.375819  
3052.000000	0.365447  
3051.000000	0.355815  
3050.000000	0.351428  
3049.000000	0.351452  
3048.000000	0.354647  
3047.000000	0.364518  
3046.000000	0.381565  
3045.000000	0.395274  
3044.000000	0.395607  
3043.000000	0.388169  
3042.000000	0.384473  
3041.000000	0.385332  
3040.000000	0.387287  
3039.000000	0.393676  
3038.000000	0.403308  
3037.000000	0.402998  
3036.000000	0.388884  
3035.000000	0.377774  
3034.000000	0.381803  
3033.000000	0.391125  
3032.000000	0.395369  
3031.000000	0.399971  
3030.000000	0.408840  
3029.000000	0.414085  
3028.000000	0.413942  
3027.000000	0.417160  
3026.000000	0.423502  
3025.000000	0.422286  
3024.000000	0.414276  
3023.000000	0.411820  
3022.000000	0.416421  
3021.000000	0.418281  
3020.000000	0.416445  
3019.000000	0.418257  
3018.000000	0.422406  
3017.000000	0.422978  
3016.000000	0.424671  
3015.000000	0.434398  
3014.000000	0.446105  
3013.000000	0.450110  
3012.000000	0.450706  
3011.000000	0.458359  
3010.000000	0.475668  
3009.000000	0.498008  
3008.000000	0.522875  
3007.000000	0.544571  
3006.000000	0.555133  
3005.000000	0.552535  
3004.000000	0.550436  
3003.000000	0.562000  
3002.000000	0.593519  
3001.000000	0.635552  
3000.000000	0.680446  
2999.000000	0.726103  
2998.000000	0.778484  
2997.000000	0.849699  
2996.000000	0.946521  
2995.000000	1.070547  
2994.000000	1.224136  
2993.000000	1.427292  
2992.000000	1.730418  
2991.000000	2.200675  
2990.000000	2.904677  
2989.000000	3.831243  
2988.000000	4.818797  
2987.000000	5.573558  
2986.000000	5.852627  
2985.000000	5.650234  
2984.000000	5.240893  
2983.000000	5.017280  
2982.000000	5.276298  
2981.000000	6.057953  
2980.000000	7.131767  
2979.000000	8.084201  
2978.000000	8.487820  
2977.000000	8.115696  
2976.000000	7.093143  
2975.000000	5.802989  
2974.000000	4.603290  
2973.000000	3.648972  
2972.000000	2.943754  
2971.000000	2.450919  
2970.000000	2.120614  
2969.000000	1.889491  
2968.000000	1.718282  
2967.000000	1.590561  
2966.000000	1.489639  
2965.000000	1.399540  
2964.000000	1.330780  
2963.000000	1.302480  
2962.000000	1.313614  
2961.000000	1.341247  
2960.000000	1.375865  
2959.000000	1.421928  
2958.000000	1.496529  
2957.000000	1.609063  
2956.000000	1.771783  
2955.000000	1.996731  
2954.000000	2.304768  
2953.000000	2.731251  
2952.000000	3.336262  
2951.000000	4.180431  
2950.000000	5.261397  
2949.000000	6.436061  
2948.000000	7.417654  
2947.000000	7.891345  
2946.000000	7.717299  
2945.000000	7.047057  
2944.000000	6.234693  
2943.000000	5.607914  
2942.000000	5.312228  
2941.000000	5.324625  
2940.000000	5.562949  
2939.000000	5.952358  
2938.000000	6.421136  
2937.000000	6.879734  
2936.000000	7.241106  
2935.000000	7.457423  
2934.000000	7.512164  
2933.000000	7.397055  
2932.000000	7.129001  
2931.000000	6.768155  
2930.000000	6.389951  
2929.000000	6.043839  
2928.000000	5.766272  
2927.000000	5.604600  
2926.000000	5.595231  
2925.000000	5.742430  
2924.000000	6.051826  
2923.000000	6.532692  
2922.000000	7.168102  
2921.000000	7.882475  
2920.000000	8.573007  
2919.000000	9.129047  
2918.000000	9.437012  
2917.000000	9.416604  
2916.000000	9.072685  
2915.000000	8.501672  
2914.000000	7.830381  
2913.000000	7.170438  
2912.000000	6.608796  
2911.000000	6.199049  
2910.000000	5.956697  
2909.000000	5.880665  
2908.000000	5.995869  
2907.000000	6.349492  
2906.000000	6.968617  
2905.000000	7.809686  
2904.000000	8.728241  
2903.000000	9.480047  
2902.000000	9.826660  
2901.000000	9.681558  
2900.000000	9.191560  
2899.000000	8.665084  
2898.000000	8.413982  
2897.000000	8.641791  
2896.000000	9.397912  
2895.000000	10.591888 
2894.000000	11.999297 
2893.000000	13.335061 
2892.000000	14.389824 
2891.000000	15.162968 
2890.000000	15.792846 
2889.000000	16.348123 
2888.000000	16.695594 
2887.000000	16.596341 
2886.000000	15.910315 
2885.000000	14.712977 
2884.000000	13.239502 
2883.000000	11.740612 
2882.000000	10.370683 
2881.000000	9.171748  
2880.000000	8.139538  
2879.000000	7.254290  
2878.000000	6.505155  
2877.000000	5.866289  
2876.000000	5.329036  
2875.000000	4.886150  
2874.000000	4.520797  
2873.000000	4.194593  
2872.000000	3.887891  
2871.000000	3.614616  
2870.000000	3.383731  
2869.000000	3.176021  
2868.000000	2.967500  
2867.000000	2.770590  
2866.000000	2.602601  
2865.000000	2.469801  
2864.000000	2.363443  
2863.000000	2.274942  
2862.000000	2.189898  
2861.000000	2.100229  
2860.000000	2.015733  
2859.000000	1.951694  
2858.000000	1.905274  
2857.000000	1.861119  
2856.000000	1.816892  
2855.000000	1.782155  
2854.000000	1.758909  
2853.000000	1.734709  
2852.000000	1.699781  
2851.000000	1.655483  
2850.000000	1.611566  
2849.000000	1.577425  
2848.000000	1.557445  
2847.000000	1.545929  
2846.000000	1.532888  
2845.000000	1.513290  
2844.000000	1.490759  
2843.000000	1.470112  
2842.000000	1.452445  
2841.000000	1.435351  
2840.000000	1.418662  
2839.000000	1.405739  
2838.000000	1.395273  
2837.000000	1.375532  
2836.000000	1.340889  
2835.000000	1.309227  
2834.000000	1.302480  
2833.000000	1.313424  
2832.000000	1.315402  
2831.000000	1.302075  
2830.000000	1.289081  
2829.000000	1.280641  
2828.000000	1.267457  
2827.000000	1.252007  
2826.000000	1.245236  
2825.000000	1.245617  
2824.000000	1.246452  
2823.000000	1.252484  
2822.000000	1.265764  
2821.000000	1.274323  
2820.000000	1.274657  
2819.000000	1.284813  
2818.000000	1.314330  
2817.000000	1.343846  
2816.000000	1.352095  
2815.000000	1.345562  
2814.000000	1.345252  
2813.000000	1.359581  
2812.000000	1.381587  
2811.000000	1.402425  
2810.000000	1.416873  
2809.000000	1.423287  
2808.000000	1.423048  
2807.000000	1.417541  
2806.000000	1.407313  
2805.000000	1.396179  
2804.000000	1.392030  
2803.000000	1.398324  
2802.000000	1.408386  
2801.000000	1.415181  
2800.000000	1.421189  
2799.000000	1.433849  
2798.000000	1.451849  
2797.000000	1.462650  
2796.000000	1.455330  
2795.000000	1.434087  
2794.000000	1.412534  
2793.000000	1.395511  
2792.000000	1.374006  
2791.000000	1.343441  
2790.000000	1.312685  
2789.000000	1.286816  
2788.000000	1.257610  
2787.000000	1.221060  
2786.000000	1.185870  
2785.000000	1.155090  
2784.000000	1.120233  
2783.000000	1.081395  
2782.000000	1.051688  
2781.000000	1.035070  
2780.000000	1.019454  
2779.000000	0.995922  
2778.000000	0.967431  
2777.000000	0.938534  
2776.000000	0.913190  
2775.000000	0.901174  
2774.000000	0.908255  
2773.000000	0.924372  
2772.000000	0.934147  
2771.000000	0.935530  
2770.000000	0.934410  
2769.000000	0.930333  
2768.000000	0.920391  
2767.000000	0.910234  
2766.000000	0.907421  
2765.000000	0.911569  
2764.000000	0.917720  
2763.000000	0.923919  
2762.000000	0.928568  
2761.000000	0.928997  
2760.000000	0.928020  
2759.000000	0.932025  
2758.000000	0.938296  
2757.000000	0.934219  
2756.000000	0.913238  
2755.000000	0.884389  
2754.000000	0.862932  
2753.000000	0.857043  
2752.000000	0.863909  
2751.000000	0.872874  
2750.000000	0.872445  
2749.000000	0.859117  
2748.000000	0.841259  
2747.000000	0.832986  
2746.000000	0.842356  
2745.000000	0.864982  
2744.000000	0.888299  
2743.000000	0.904655  
2742.000000	0.916600  
2741.000000	0.928878  
2740.000000	0.941514  
2739.000000	0.957202  
2738.000000	0.984072  
2737.000000	1.021480  
2736.000000	1.053166  
2735.000000	1.064515  
2734.000000	1.055645  
2733.000000	1.030731  
2732.000000	0.991320  
2731.000000	0.947856  
2730.000000	0.917530  
2729.000000	0.902199  
2728.000000	0.888395  
2727.000000	0.871610  
2726.000000	0.858926  
2725.000000	0.849246  
2724.000000	0.834369  
2723.000000	0.819802  
2722.000000	0.819778  
2721.000000	0.832033  
2720.000000	0.838637  
2719.000000	0.830912  
2718.000000	0.816679  
2717.000000	0.804734  
2716.000000	0.794172  
2715.000000	0.780963  
2714.000000	0.765109  
2713.000000	0.750660  
2712.000000	0.739336  
2711.000000	0.728201  
2710.000000	0.713157  
2709.000000	0.695538  
2708.000000	0.680994  
2707.000000	0.672316  
2706.000000	0.665020  
2705.000000	0.654554  
2704.000000	0.644016  
2703.000000	0.641465  
2702.000000	0.648641  
2701.000000	0.657606  
2700.000000	0.660753  
2699.000000	0.660896  
2698.000000	0.668239  
2697.000000	0.686144  
2696.000000	0.704836  
2695.000000	0.715112  
2694.000000	0.722885  
2693.000000	0.740027  
2692.000000	0.765132  
2691.000000	0.786995  
2690.000000	0.801444  
2689.000000	0.812864  
2688.000000	0.823497  
2687.000000	0.834465  
2686.000000	0.851058  
2685.000000	0.874972  
2684.000000	0.896763  
2683.000000	0.905489  
2682.000000	0.900530  
2681.000000	0.888204  
2680.000000	0.874948  
2679.000000	0.867891  
2678.000000	0.872564  
2677.000000	0.884628  
2676.000000	0.892019  
2675.000000	0.889849  
2674.000000	0.883722  
2673.000000	0.878238  
2672.000000	0.872826  
2671.000000	0.868868  
2670.000000	0.869870  
2669.000000	0.873446  
2668.000000	0.876617  
2667.000000	0.884890  
2666.000000	0.901913  
2665.000000	0.915598  
2664.000000	0.911641  
2663.000000	0.895237  
2662.000000	0.882196  
2661.000000	0.877141  
2660.000000	0.875711  
2659.000000	0.876927  
2658.000000	0.877404  
2657.000000	0.864934  
2656.000000	0.833940  
2655.000000	0.797462  
2654.000000	0.772285  
2653.000000	0.763535  
2652.000000	0.770401  
2651.000000	0.791239  
2650.000000	0.816774  
2649.000000	0.832533  
2648.000000	0.834798  
2647.000000	0.833296  
2646.000000	0.835418  
2645.000000	0.835561  
2644.000000	0.824332  
2643.000000	0.803470  
2642.000000	0.786137  
2641.000000	0.778055  
2640.000000	0.765800  
2639.000000	0.736641  
2638.000000	0.700640  
2637.000000	0.674462  
2636.000000	0.654125  
2635.000000	0.628972  
2634.000000	0.605607  
2633.000000	0.590753  
2632.000000	0.571656  
2631.000000	0.543236  
2630.000000	0.527262  
2629.000000	0.534844  
2628.000000	0.540351  
2627.000000	0.521874  
2626.000000	0.493741  
2625.000000	0.474023  
2624.000000	0.457000  
2623.000000	0.437974  
2622.000000	0.430631  
2621.000000	0.441122  
2620.000000	0.455641  
2619.000000	0.464344  
2618.000000	0.471830  
2617.000000	0.478100  
2616.000000	0.473523  
2615.000000	0.457859  
2614.000000	0.446105  
2613.000000	0.450682  
2612.000000	0.469732  
2611.000000	0.492501  
2610.000000	0.507712  
2609.000000	0.508475  
2608.000000	0.496721  
2607.000000	0.481462  
2606.000000	0.468802  
2605.000000	0.459241  
2604.000000	0.456905  
2603.000000	0.470209  
2602.000000	0.497794  
2601.000000	0.523400  
2600.000000	0.534129  
2599.000000	0.535106  
2598.000000	0.540351  
2597.000000	0.554323  
2596.000000	0.567340  
2595.000000	0.572133  
2594.000000	0.578165  
2593.000000	0.597929  
2592.000000	0.623178  
2591.000000	0.635123  
2590.000000	0.634598  
2589.000000	0.633001  
2588.000000	0.619888  
2587.000000	0.580072  
2586.000000	0.534272  
2585.000000	0.515055  
2584.000000	0.512766  
2583.000000	0.498151  
2582.000000	0.477647  
2581.000000	0.472664  
2580.000000	0.471353  
2579.000000	0.456476  
2578.000000	0.446629  
2577.000000	0.458526  
2576.000000	0.467801  
2575.000000	0.453186  
2574.000000	0.438094  
2573.000000	0.448203  
2572.000000	0.466609  
2571.000000	0.465154  
2570.000000	0.448179  
2569.000000	0.437426  
2568.000000	0.438022  
2567.000000	0.437045  
2566.000000	0.427627  
2565.000000	0.420260  
2564.000000	0.425124  
2563.000000	0.432562  
2562.000000	0.425386  
2561.000000	0.406527  
2560.000000	0.394344  
2559.000000	0.392913  
2558.000000	0.392270  
2557.000000	0.395250  
2556.000000	0.417089  
2555.000000	0.456595  
2554.000000	0.488901  
2553.000000	0.489807  
2552.000000	0.456762  
2551.000000	0.408387  
2550.000000	0.369930  
2549.000000	0.354862  
2548.000000	0.354361  
2547.000000	0.350618  
2546.000000	0.341796  
2545.000000	0.342726  
2544.000000	0.358653  
2543.000000	0.374937  
2542.000000	0.377988  
2541.000000	0.370097  
2540.000000	0.356268  
2539.000000	0.335955  
2538.000000	0.314784  
2537.000000	0.305724  
2536.000000	0.311970  
2535.000000	0.323629  
2534.000000	0.334310  
2533.000000	0.342941  
2532.000000	0.343394  
2531.000000	0.332856  
2530.000000	0.324225  
2529.000000	0.329756  
2528.000000	0.339579  
2527.000000	0.339102  
2526.000000	0.334239  
2525.000000	0.336623  
2524.000000	0.340175  
2523.000000	0.335359  
2522.000000	0.330781  
2521.000000	0.336909  
2520.000000	0.346112  
2519.000000	0.348329  
2518.000000	0.347661  
2517.000000	0.348091  
2516.000000	0.343394  
2515.000000	0.333714  
2514.000000	0.329017  
2513.000000	0.328111  
2512.000000	0.318431  
2511.000000	0.302553  
2510.000000	0.299334  
2509.000000	0.314784  
2508.000000	0.332784  
2507.000000	0.338149  
2506.000000	0.332117  
2505.000000	0.322103  
2504.000000	0.310087  
2503.000000	0.295877  
2502.000000	0.285387  
2501.000000	0.287961  
2500.000000	0.302791  
2499.000000	0.315284  
2498.000000	0.314974  
2497.000000	0.310301  
2496.000000	0.315785  
2495.000000	0.330924  
2494.000000	0.343990  
2493.000000	0.348258  
2492.000000	0.343585  
2491.000000	0.331211  
2490.000000	0.317573  
2489.000000	0.311446  
2488.000000	0.310754  
2487.000000	0.305771  
2486.000000	0.297737  
2485.000000	0.296735  
2484.000000	0.298643  
2483.000000	0.288558  
2482.000000	0.268936  
2481.000000	0.259113  
2480.000000	0.265049  
2479.000000	0.274538  
2478.000000	0.281429  
2477.000000	0.287008  
2476.000000	0.283551  
2475.000000	0.267720  
2474.000000	0.259089  
2473.000000	0.272107  
2472.000000	0.287389  
2471.000000	0.284004  
2470.000000	0.276041  
2469.000000	0.282073  
2468.000000	0.289368  
2467.000000	0.283169  
2466.000000	0.278139  
2465.000000	0.285816  
2464.000000	0.288343  
2463.000000	0.274491  
2462.000000	0.263833  
2461.000000	0.270771  
2460.000000	0.281000  
2459.000000	0.283026  
2458.000000	0.287795  
2457.000000	0.302171  
2456.000000	0.313377  
2455.000000	0.311255  
2454.000000	0.303959  
2453.000000	0.304937  
2452.000000	0.315213  
2451.000000	0.324487  
2450.000000	0.324606  
2449.000000	0.319337  
2448.000000	0.319027  
2447.000000	0.328397  
2446.000000	0.344872  
2445.000000	0.364613  
2444.000000	0.379776  
2443.000000	0.378203  
2442.000000	0.360870  
2441.000000	0.345659  
2440.000000	0.340771  
2439.000000	0.333666  
2438.000000	0.322008  
2437.000000	0.324320  
2436.000000	0.341844  
2435.000000	0.347280  
2434.000000	0.331854  
2433.000000	0.322461  
2432.000000	0.333380  
2431.000000	0.343966  
2430.000000	0.339388  
2429.000000	0.332045  
2428.000000	0.329351  
2427.000000	0.321865  
2426.000000	0.309920  
2425.000000	0.306105  
2424.000000	0.309157  
2423.000000	0.307321  
2422.000000	0.303888  
2421.000000	0.307655  
2420.000000	0.309157  
2419.000000	0.296926  
2418.000000	0.283908  
2417.000000	0.287127  
2416.000000	0.298714  
2415.000000	0.303792  
2414.000000	0.307106  
2413.000000	0.314712  
2412.000000	0.314140  
2411.000000	0.296998  
2410.000000	0.278639  
2409.000000	0.273680  
2408.000000	0.276112  
2407.000000	0.279021  
2406.000000	0.288343  
2405.000000	0.304388  
2404.000000	0.313544  
2403.000000	0.310039  
2402.000000	0.305676  
2401.000000	0.311112  
2400.000000	0.323748  
2399.000000	0.336265  
2398.000000	0.343298  
2397.000000	0.339770  
2396.000000	0.323295  
2395.000000	0.300145  
2394.000000	0.280213  
2393.000000	0.267601  
2392.000000	0.259375  
2391.000000	0.252962  
2390.000000	0.251936  
2389.000000	0.261092  
2388.000000	0.275444  
2387.000000	0.280213  
2386.000000	0.268554  
2385.000000	0.251054  
2384.000000	0.239586  
2383.000000	0.235080  
2382.000000	0.238847  
2381.000000	0.255179  
2380.000000	0.272631  
2379.000000	0.270247  
2378.000000	0.252032  
2377.000000	0.244116  
2376.000000	0.249743  
2375.000000	0.246191  
2374.000000	0.231242  
2373.000000	0.227618  
2372.000000	0.238156  
2371.000000	0.244045  
2370.000000	0.245475  
2369.000000	0.255942  
2368.000000	0.264096  
2367.000000	0.251221  
2366.000000	0.233340  
2365.000000	0.236868  
2364.000000	0.250196  
2363.000000	0.246191  
2362.000000	0.230622  
2361.000000	0.225329  
2360.000000	0.227594  
2359.000000	0.223970  
2358.000000	0.220036  
2357.000000	0.225210  
2356.000000	0.232553  
2355.000000	0.237345  
2354.000000	0.247430  
2353.000000	0.258541  
2352.000000	0.251555  
2351.000000	0.228047  
2350.000000	0.215482  
2349.000000	0.226259  
2348.000000	0.243163  
2347.000000	0.251388  
2346.000000	0.254392  
2345.000000	0.254845  
2344.000000	0.248384  
2343.000000	0.239062  
2342.000000	0.237679  
2341.000000	0.243282  
2340.000000	0.242900  
2339.000000	0.232148  
2338.000000	0.224661  
2337.000000	0.235915  
2336.000000	0.259828  
2335.000000	0.272774  
2334.000000	0.267314  
2333.000000	0.267696  
2332.000000	0.295948  
2331.000000	0.339961  
2330.000000	0.373435  
2329.000000	0.386261  
2328.000000	0.376677  
2327.000000	0.341224  
2326.000000	0.292730  
2325.000000	0.259137  
2324.000000	0.247097  
2323.000000	0.239157  
2322.000000	0.235486  
2321.000000	0.253605  
2320.000000	0.283312  
2319.000000	0.293135  
2318.000000	0.284695  
2317.000000	0.285530  
2316.000000	0.293159  
2315.000000	0.284314  
2314.000000	0.269389  
2313.000000	0.274419  
2312.000000	0.285768  
2311.000000	0.276279  
2310.000000	0.262427  
2309.000000	0.272369  
2308.000000	0.288391  
2307.000000	0.280666  
2306.000000	0.263929  
2305.000000	0.266671  
2304.000000	0.280642  
2303.000000	0.286269  
2302.000000	0.289130  
2301.000000	0.295352  
2300.000000	0.292110  
2299.000000	0.280356  
2298.000000	0.284242  
2297.000000	0.307321  
2296.000000	0.321245  
2295.000000	0.312852  
2294.000000	0.303649  
2293.000000	0.310373  
2292.000000	0.319695  
2291.000000	0.312685  
2290.000000	0.291776  
2289.000000	0.274443  
2288.000000	0.269746  
2287.000000	0.269603  
2286.000000	0.264263  
2285.000000	0.259089  
2284.000000	0.264453  
2283.000000	0.277495  
2282.000000	0.289440  
2281.000000	0.299286  
2280.000000	0.301456  
2279.000000	0.279855  
2278.000000	0.239515  
2277.000000	0.217437  
2276.000000	0.234532  
2275.000000	0.265336  
2274.000000	0.281691  
2273.000000	0.291419  
2272.000000	0.308656  
2271.000000	0.325226  
2270.000000	0.335359  
2269.000000	0.347518  
2268.000000	0.355505  
2267.000000	0.343108  
2266.000000	0.323987  
2265.000000	0.325298  
2264.000000	0.332880  
2263.000000	0.312566  
2262.000000	0.279259  
2261.000000	0.275516  
2260.000000	0.293850  
2259.000000	0.293087  
2258.000000	0.273990  
2257.000000	0.265955  
2256.000000	0.263881  
2255.000000	0.249719  
2254.000000	0.244498  
2253.000000	0.270891  
2252.000000	0.301265  
2251.000000	0.302433  
2250.000000	0.291228  
2249.000000	0.296354  
2248.000000	0.308775  
2247.000000	0.311994  
2246.000000	0.316739  
2245.000000	0.331377  
2244.000000	0.340056  
2243.000000	0.334930  
2242.000000	0.332307  
2241.000000	0.340509  
2240.000000	0.345015  
2239.000000	0.336885  
2238.000000	0.327229  
2237.000000	0.326395  
2236.000000	0.328683  
2235.000000	0.322151  
2234.000000	0.305938  
2233.000000	0.291061  
2232.000000	0.285100  
2231.000000	0.283813  
2230.000000	0.285506  
2229.000000	0.300073  
2228.000000	0.325894  
2227.000000	0.336050  
2226.000000	0.316500  
2225.000000	0.294494  
2224.000000	0.297522  
2223.000000	0.312733  
2222.000000	0.319242  
2221.000000	0.323700  
2220.000000	0.330781  
2219.000000	0.323820  
2218.000000	0.304794  
2217.000000	0.303864  
2216.000000	0.322008  
2215.000000	0.322580  
2214.000000	0.298905  
2213.000000	0.288057  
2212.000000	0.302290  
2211.000000	0.312662  
2210.000000	0.309681  
2209.000000	0.312709  
2208.000000	0.318288  
2207.000000	0.308251  
2206.000000	0.301647  
2205.000000	0.327849  
2204.000000	0.363707  
2203.000000	0.367045  
2202.000000	0.348377  
2201.000000	0.341176  
2200.000000	0.337123  
2199.000000	0.317811  
2198.000000	0.306701  
2197.000000	0.326228  
2196.000000	0.347113  
2195.000000	0.335192  
2194.000000	0.305938  
2193.000000	0.287985  
2192.000000	0.277328  
2191.000000	0.264525  
2190.000000	0.263381  
2189.000000	0.282812  
2188.000000	0.305151  
2187.000000	0.312590  
2186.000000	0.309062  
2185.000000	0.305747  
2184.000000	0.304937  
2183.000000	0.305104  
2182.000000	0.308632  
2181.000000	0.318431  
2180.000000	0.328874  
2179.000000	0.325942  
2178.000000	0.304865  
2177.000000	0.282335  
2176.000000	0.276303  
2175.000000	0.282168  
2174.000000	0.286841  
2173.000000	0.291252  
2172.000000	0.295495  
2171.000000	0.284385  
2170.000000	0.258684  
2169.000000	0.249624  
2168.000000	0.269579  
2167.000000	0.285124  
2166.000000	0.272488  
2165.000000	0.254178  
2164.000000	0.248885  
2163.000000	0.241613  
2162.000000	0.231480  
2161.000000	0.245141  
2160.000000	0.276684  
2159.000000	0.285530  
2158.000000	0.269794  
2157.000000	0.268459  
2156.000000	0.283670  
2155.000000	0.279259  
2154.000000	0.257420  
2153.000000	0.256681  
2152.000000	0.276494  
2151.000000	0.283288  
2150.000000	0.279521  
2149.000000	0.291943  
2148.000000	0.309896  
2147.000000	0.305628  
2146.000000	0.289678  
2145.000000	0.283265  
2144.000000	0.273990  
2143.000000	0.254416  
2142.000000	0.255632  
2141.000000	0.292587  
2140.000000	0.325369  
2139.000000	0.321221  
2138.000000	0.304722  
2137.000000	0.306963  
2136.000000	0.314331  
2135.000000	0.301861  
2134.000000	0.278210  
2133.000000	0.268721  
2132.000000	0.279378  
2131.000000	0.294780  
2130.000000	0.298571  
2129.000000	0.287175  
2128.000000	0.268578  
2127.000000	0.251984  
2126.000000	0.241875  
2125.000000	0.240826  
2124.000000	0.247383  
2123.000000	0.253343  
2122.000000	0.257825  
2121.000000	0.274562  
2120.000000	0.305056  
2119.000000	0.321769  
2118.000000	0.306177  
2117.000000	0.281000  
2116.000000	0.272893  
2115.000000	0.274562  
2114.000000	0.275826  
2113.000000	0.290679  
2112.000000	0.317907  
2111.000000	0.324225  
2110.000000	0.302076  
2109.000000	0.289225  
2108.000000	0.299119  
2107.000000	0.297403  
2106.000000	0.273633  
2105.000000	0.262737  
2104.000000	0.274014  
2103.000000	0.275540  
2102.000000	0.261878  
2101.000000	0.258803  
2100.000000	0.261116  
2099.000000	0.244116  
2098.000000	0.228500  
2097.000000	0.249338  
2096.000000	0.279450  
2095.000000	0.271081  
2094.000000	0.244426  
2093.000000	0.247931  
2092.000000	0.268077  
2091.000000	0.259757  
2090.000000	0.228357  
2089.000000	0.207185  
2088.000000	0.196504  
2087.000000	0.184011  
2086.000000	0.182747  
2085.000000	0.200939  
2084.000000	0.216865  
2083.000000	0.219368  
2082.000000	0.230360  
2081.000000	0.261259  
2080.000000	0.287318  
2079.000000	0.287032  
2078.000000	0.273370  
2077.000000	0.270652  
2076.000000	0.282597  
2075.000000	0.293779  
2074.000000	0.291228  
2073.000000	0.277996  
2072.000000	0.266861  
2071.000000	0.264763  
2070.000000	0.269651  
2069.000000	0.277733  
2068.000000	0.281047  
2067.000000	0.266718  
2066.000000	0.241589  
2065.000000	0.238823  
2064.000000	0.271368  
2063.000000	0.304913  
2062.000000	0.312304  
2061.000000	0.315570  
2060.000000	0.334382  
2059.000000	0.343084  
2058.000000	0.323677  
2057.000000	0.304007  
2056.000000	0.298976  
2055.000000	0.279688  
2054.000000	0.240612  
2053.000000	0.221991  
2052.000000	0.231885  
2051.000000	0.228548  
2050.000000	0.204539  
2049.000000	0.200128  
2048.000000	0.219726  
2047.000000	0.226283  
2046.000000	0.221276  
2045.000000	0.236654  
2044.000000	0.254869  
2043.000000	0.234150  
2042.000000	0.196313  
2041.000000	0.193142  
2040.000000	0.213623  
2039.000000	0.214815  
2038.000000	0.207805  
2037.000000	0.225687  
2036.000000	0.249075  
2035.000000	0.241351  
2034.000000	0.218391  
2033.000000	0.218319  
2032.000000	0.239014  
2031.000000	0.253653  
2030.000000	0.255084  
2029.000000	0.250673  
2028.000000	0.243234  
2027.000000	0.239872  
2026.000000	0.251889  
2025.000000	0.273752  
2024.000000	0.285196  
2023.000000	0.279927  
2022.000000	0.272774  
2021.000000	0.275778  
2020.000000	0.282621  
2019.000000	0.280380  
2018.000000	0.269603  
2017.000000	0.264263  
2016.000000	0.267934  
2015.000000	0.262308  
2014.000000	0.235128  
2013.000000	0.205898  
2012.000000	0.198888  
2011.000000	0.207114  
2010.000000	0.215005  
2009.000000	0.231504  
2008.000000	0.263619  
2007.000000	0.287246  
2006.000000	0.286006  
2005.000000	0.280714  
2004.000000	0.283408  
2003.000000	0.270366  
2002.000000	0.238180  
2001.000000	0.225663  
2000.000000	0.244736  
1999.000000	0.257492  
1998.000000	0.250506  
1997.000000	0.254821  
1996.000000	0.271558  
1995.000000	0.264763  
1994.000000	0.241398  
1993.000000	0.245809  
1992.000000	0.271058  
1991.000000	0.269412  
1990.000000	0.246906  
1989.000000	0.247550  
1988.000000	0.261116  
1987.000000	0.247216  
1986.000000	0.223922  
1985.000000	0.233435  
1984.000000	0.256276  
1983.000000	0.252652  
1982.000000	0.241708  
1981.000000	0.257325  
1980.000000	0.278496  
1979.000000	0.275802  
1978.000000	0.270438  
1977.000000	0.285530  
1976.000000	0.295376  
1975.000000	0.274968  
1974.000000	0.248456  
1973.000000	0.248193  
1972.000000	0.265383  
1971.000000	0.271248  
1970.000000	0.258588  
1969.000000	0.243234  
1968.000000	0.238823  
1967.000000	0.242209  
1966.000000	0.240468  
1965.000000	0.229215  
1964.000000	0.216460  
1963.000000	0.209617  
1962.000000	0.210547  
1961.000000	0.221776  
1960.000000	0.239539  
1959.000000	0.247144  
1958.000000	0.239396  
1957.000000	0.237798  
1956.000000	0.251340  
1955.000000	0.251889  
1954.000000	0.226068  
1953.000000	0.209474  
1952.000000	0.223350  
1951.000000	0.232839  
1950.000000	0.217413  
1949.000000	0.214648  
1948.000000	0.241446  
1947.000000	0.254726  
1946.000000	0.240945  
1945.000000	0.248527  
1944.000000	0.288844  
1943.000000	0.309205  
1942.000000	0.298595  
1941.000000	0.307297  
1940.000000	0.339961  
1939.000000	0.343775  
1938.000000	0.314331  
1937.000000	0.302338  
1936.000000	0.312805  
1935.000000	0.303244  
1934.000000	0.275158  
1933.000000	0.266408  
1932.000000	0.271511  
1931.000000	0.260710  
1930.000000	0.249767  
1929.000000	0.269460  
1928.000000	0.302958  
1927.000000	0.324201  
1926.000000	0.349688  
1925.000000	0.390958  
1924.000000	0.410199  
1923.000000	0.378990  
1922.000000	0.330448  
1921.000000	0.305485  
1920.000000	0.296878  
1919.000000	0.281524  
1918.000000	0.263166  
1917.000000	0.253200  
1916.000000	0.245904  
1915.000000	0.234675  
1914.000000	0.228762  
1913.000000	0.240492  
1912.000000	0.268292  
1911.000000	0.297284  
1910.000000	0.317573  
1909.000000	0.335645  
1908.000000	0.358462  
1907.000000	0.374031  
1906.000000	0.369691  
1905.000000	0.357794  
1904.000000	0.351667  
1903.000000	0.337529  
1902.000000	0.309801  
1901.000000	0.300431  
1900.000000	0.323891  
1899.000000	0.338459  
1898.000000	0.317025  
1897.000000	0.298833  
1896.000000	0.313973  
1895.000000	0.326275  
1894.000000	0.310277  
1893.000000	0.301146  
1892.000000	0.313997  
1891.000000	0.307488  
1890.000000	0.274181  
1889.000000	0.262832  
1888.000000	0.276446  
1887.000000	0.262022  
1886.000000	0.222921  
1885.000000	0.219488  
1884.000000	0.250434  
1883.000000	0.256180  
1882.000000	0.237607  
1881.000000	0.245857  
1880.000000	0.270247  
1879.000000	0.259733  
1878.000000	0.230526  
1877.000000	0.235509  
1876.000000	0.259542  
1875.000000	0.251650  
1874.000000	0.220298  
1873.000000	0.206041  
1872.000000	0.205588  
1871.000000	0.196862  
1870.000000	0.192832  
1869.000000	0.212335  
1868.000000	0.238847  
1867.000000	0.250983  
1866.000000	0.255727  
1865.000000	0.263786  
1864.000000	0.265407  
1863.000000	0.252175  
1862.000000	0.237131  
1861.000000	0.237298  
1860.000000	0.249433  
1859.000000	0.253367  
1858.000000	0.237345  
1857.000000	0.214624  
1856.000000	0.206565  
1855.000000	0.214314  
1854.000000	0.223588  
1853.000000	0.231456  
1852.000000	0.241684  
1851.000000	0.243639  
1850.000000	0.229597  
1849.000000	0.219178  
1848.000000	0.226783  
1847.000000	0.231575  
1846.000000	0.221967  
1845.000000	0.228428  
1844.000000	0.261449  
1843.000000	0.276184  
1842.000000	0.254797  
1841.000000	0.248241  
1840.000000	0.277733  
1839.000000	0.288486  
1838.000000	0.258755  
1837.000000	0.244641  
1836.000000	0.264739  
1835.000000	0.264263  
1834.000000	0.236582  
1833.000000	0.243425  
1832.000000	0.284719  
1831.000000	0.288939  
1830.000000	0.249481  
1829.000000	0.233864  
1828.000000	0.252079  
1827.000000	0.249648  
1826.000000	0.225138  
1825.000000	0.226593  
1824.000000	0.249052  
1823.000000	0.248837  
1822.000000	0.232434  
1821.000000	0.233387  
1820.000000	0.239133  
1819.000000	0.223612  
1818.000000	0.208115  
1817.000000	0.220775  
1816.000000	0.241541  
1815.000000	0.241875  
1814.000000	0.234699  
1813.000000	0.241875  
1812.000000	0.253105  
1811.000000	0.249576  
1810.000000	0.237083  
1809.000000	0.231575  
1808.000000	0.233149  
1807.000000	0.229907  
1806.000000	0.218915  
1805.000000	0.213313  
1804.000000	0.223946  
1803.000000	0.239539  
1802.000000	0.243330  
1801.000000	0.243020  
1800.000000	0.253891  
1799.000000	0.263047  
1798.000000	0.253009  
1797.000000	0.242900  
1796.000000	0.254130  
1795.000000	0.262498  
1794.000000	0.244975  
1793.000000	0.233340  
1792.000000	0.254178  
1791.000000	0.267505  
1790.000000	0.237345  
1789.000000	0.203084  
1788.000000	0.209999  
1787.000000	0.233817  
1786.000000	0.239467  
1785.000000	0.241446  
1784.000000	0.249171  
1783.000000	0.236368  
1782.000000	0.210094  
1781.000000	0.217223  
1780.000000	0.250506  
1779.000000	0.250935  
1778.000000	0.221705  
1777.000000	0.224471  
1776.000000	0.256609  
1775.000000	0.255560  
1774.000000	0.223135  
1773.000000	0.219607  
1772.000000	0.243687  
1771.000000	0.244116  
1770.000000	0.228214  
1769.000000	0.239229  
1768.000000	0.259852  
1767.000000	0.250625  
1766.000000	0.237512  
1765.000000	0.260257  
1764.000000	0.288844  
1763.000000	0.278806  
1762.000000	0.252032  
1761.000000	0.251102  
1760.000000	0.266718  
1759.000000	0.268006  
1758.000000	0.258088  
1757.000000	0.256466  
1756.000000	0.262594  
1755.000000	0.265741  
1754.000000	0.267457  
1753.000000	0.276064  
1752.000000	0.289821  
1751.000000	0.294566  
1750.000000	0.282192  
1749.000000	0.266122  
1748.000000	0.261998  
1747.000000	0.259494  
1746.000000	0.241756  
1745.000000	0.223422  
1744.000000	0.227117  
1743.000000	0.237774  
1742.000000	0.232005  
1741.000000	0.228619  
1740.000000	0.248241  
1739.000000	0.261330  
1738.000000	0.242352  
1737.000000	0.226187  
1736.000000	0.240373  
1735.000000	0.246429  
1734.000000	0.218558  
1733.000000	0.202846  
1732.000000	0.227451  
1731.000000	0.244355  
1730.000000	0.226640  
1729.000000	0.222754  
1728.000000	0.255537  
1727.000000	0.277400  
1726.000000	0.271224  
1725.000000	0.277805  
1724.000000	0.294756  
1723.000000	0.272941  
1722.000000	0.228691  
1721.000000	0.228786  
1720.000000	0.263714  
1719.000000	0.264739  
1718.000000	0.235605  
1717.000000	0.235819  
1716.000000	0.258326  
1715.000000	0.251507  
1714.000000	0.229096  
1713.000000	0.240612  
1712.000000	0.271749  
1711.000000	0.275444  
1710.000000	0.257897  
1709.000000	0.252366  
1708.000000	0.254344  
1707.000000	0.246572  
1706.000000	0.244903  
1705.000000	0.269722  
1704.000000	0.304818  
1703.000000	0.319337  
1702.000000	0.308775  
1701.000000	0.293231  
1700.000000	0.287747  
1699.000000	0.286889  
1698.000000	0.279617  
1697.000000	0.271773  
1696.000000	0.279998  
1695.000000	0.302457  
1694.000000	0.318670  
1693.000000	0.319266  
1692.000000	0.310873  
1691.000000	0.294899  
1690.000000	0.276231  
1689.000000	0.280833  
1688.000000	0.319504  
1687.000000	0.353765  
1686.000000	0.349378  
1685.000000	0.331521  
1684.000000	0.330281  
1683.000000	0.322794  
1682.000000	0.293612  
1681.000000	0.285530  
1680.000000	0.317835  
1679.000000	0.334453  
1678.000000	0.306177  
1677.000000	0.290656  
1676.000000	0.321602  
1675.000000	0.346994  
1674.000000	0.339293  
1673.000000	0.345492  
1672.000000	0.376033  
1671.000000	0.374698  
1670.000000	0.337648  
1669.000000	0.328230  
1668.000000	0.352644  
1667.000000	0.353384  
1666.000000	0.331211  
1665.000000	0.340867  
1664.000000	0.372743  
1663.000000	0.372242  
1662.000000	0.354075  
1661.000000	0.370121  
1660.000000	0.398826  
1659.000000	0.386238  
1658.000000	0.351572  
1657.000000	0.346875  
1656.000000	0.360894  
1655.000000	0.355362  
1654.000000	0.342893  
1653.000000	0.356006  
1652.000000	0.384211  
1651.000000	0.398588  
1650.000000	0.400495  
1649.000000	0.406813  
1648.000000	0.414943  
1647.000000	0.409388  
1646.000000	0.388836  
1645.000000	0.371789  
1644.000000	0.374269  
1643.000000	0.387501  
1642.000000	0.390315  
1641.000000	0.382518  
1640.000000	0.379395  
1639.000000	0.377511  
1638.000000	0.364518  
1637.000000	0.354814  
1636.000000	0.366377  
1635.000000	0.376629  
1634.000000	0.361919  
1633.000000	0.352215  
1632.000000	0.375318  
1631.000000	0.391602  
1630.000000	0.364661  
1629.000000	0.338125  
1628.000000	0.354790  
1627.000000	0.374341  
1626.000000	0.359368  
1625.000000	0.352644  
1624.000000	0.382304  
1623.000000	0.394201  
1622.000000	0.361013  
1621.000000	0.341677  
1620.000000	0.362324  
1619.000000	0.366377  
1618.000000	0.337600  
1617.000000	0.336360  
1616.000000	0.372433  
1615.000000	0.380492  
1614.000000	0.348854  
1613.000000	0.337052  
1612.000000	0.353813  
1611.000000	0.346279  
1610.000000	0.311851  
1609.000000	0.299501  
1608.000000	0.310468  
1607.000000	0.308251  
1606.000000	0.302791  
1605.000000	0.325560  
1604.000000	0.355172  
1603.000000	0.354146  
1602.000000	0.339150  
1601.000000	0.342941  
1600.000000	0.351953  
1599.000000	0.339961  
1598.000000	0.321578  
1597.000000	0.323486  
1596.000000	0.338244  
1595.000000	0.342273  
1594.000000	0.333738  
1593.000000	0.328898  
1592.000000	0.334596  
1591.000000	0.339365  
1590.000000	0.332212  
1589.000000	0.323033  
1588.000000	0.327539  
1587.000000	0.336241  
1586.000000	0.331187  
1585.000000	0.325632  
1584.000000	0.340127  
1583.000000	0.352263  
1582.000000	0.332689  
1581.000000	0.311136  
1580.000000	0.328636  
1579.000000	0.355696  
1578.000000	0.346565  
1577.000000	0.329804  
1576.000000	0.350761  
1575.000000	0.379538  
1574.000000	0.371742  
1573.000000	0.353479  
1572.000000	0.355911  
1571.000000	0.347781  
1570.000000	0.315022  
1569.000000	0.312376  
1568.000000	0.359606  
1567.000000	0.392007  
1566.000000	0.378441  
1565.000000	0.372958  
1564.000000	0.398206  
1563.000000	0.399708  
1562.000000	0.359439  
1561.000000	0.332307  
1560.000000	0.341224  
1559.000000	0.350141  
1558.000000	0.353360  
1557.000000	0.379920  
1556.000000	0.411391  
1555.000000	0.404739  
1554.000000	0.381183  
1553.000000	0.388288  
1552.000000	0.403761  
1551.000000	0.379371  
1550.000000	0.338578  
1549.000000	0.337457  
1548.000000	0.369906  
1547.000000	0.393486  
1546.000000	0.406146  
1545.000000	0.430226  
1544.000000	0.459122  
1543.000000	0.471329  
1542.000000	0.469517  
1541.000000	0.470900  
1540.000000	0.476765  
1539.000000	0.472569  
1538.000000	0.452399  
1537.000000	0.433874  
1536.000000	0.438618  
1535.000000	0.460147  
1534.000000	0.474834  
1533.000000	0.481438  
1532.000000	0.493550  
1531.000000	0.497794  
1530.000000	0.472760  
1529.000000	0.442290  
1528.000000	0.445389  
1527.000000	0.466918  
1526.000000	0.470519  
1525.000000	0.473165  
1524.000000	0.505042  
1523.000000	0.535225  
1522.000000	0.526380  
1521.000000	0.510716  
1520.000000	0.522947  
1519.000000	0.526738  
1518.000000	0.493240  
1517.000000	0.470209  
1516.000000	0.488924  
1515.000000	0.496554  
1514.000000	0.459194  
1513.000000	0.429463  
1512.000000	0.441360  
1511.000000	0.451397  
1510.000000	0.438642  
1509.000000	0.447416  
1508.000000	0.487375  
1507.000000	0.509119  
1506.000000	0.505375  
1505.000000	0.520420  
1504.000000	0.550198  
1503.000000	0.547432  
1502.000000	0.524997  
1501.000000	0.538992  
1500.000000	0.582718  
1499.000000	0.604486  
1498.000000	0.607323  
1497.000000	0.627923  
1496.000000	0.654315  
1495.000000	0.655841  
1494.000000	0.655746  
1493.000000	0.688695  
1492.000000	0.733518  
1491.000000	0.749945  
1490.000000	0.748682  
1489.000000	0.762724  
1488.000000	0.799727  
1487.000000	0.840568  
1486.000000	0.882720  
1485.000000	0.928640  
1484.000000	0.978922  
1483.000000	1.022219  
1482.000000	1.058840  
1481.000000	1.115202  
1480.000000	1.218390  
1479.000000	1.362609  
1478.000000	1.536369  
1477.000000	1.778864  
1476.000000	2.156209  
1475.000000	2.697300  
1474.000000	3.413605  
1473.000000	4.335856  
1472.000000	5.402088  
1471.000000	6.353330  
1470.000000	6.856298  
1469.000000	6.760907  
1468.000000	6.164073  
1467.000000	5.289149  
1466.000000	4.386591  
1465.000000	3.666162  
1464.000000	3.206562  
1463.000000	2.940893  
1462.000000	2.812719  
1461.000000	2.851533  
1460.000000	3.091406  
1459.000000	3.489065  
1458.000000	4.006433  
1457.000000	4.606962  
1456.000000	5.146932  
1455.000000	5.397057  
1454.000000	5.263566  
1453.000000	4.857563  
1452.000000	4.338312  
1451.000000	3.798317  
1450.000000	3.315448  
1449.000000	2.963709  
1448.000000	2.737021  
1447.000000	2.573299  
1446.000000	2.452421  
1445.000000	2.393841  
1444.000000	2.375793  
1443.000000	2.354741  
1442.000000	2.332615  
1441.000000	2.336430  
1440.000000	2.355623  
1439.000000	2.367639  
1438.000000	2.384734  
1437.000000	2.419042  
1436.000000	2.453494  
1435.000000	2.469086  
1434.000000	2.493596  
1433.000000	2.557325  
1432.000000	2.654910  
1431.000000	2.750897  
1430.000000	2.830314  
1429.000000	2.909803  
1428.000000	3.013896  
1427.000000	3.140592  
1426.000000	3.275132  
1425.000000	3.426933  
1424.000000	3.618741  
1423.000000	3.841638  
1422.000000	4.073262  
1421.000000	4.331254  
1420.000000	4.644989  
1419.000000	4.986286  
1418.000000	5.306363  
1417.000000	5.605673  
1416.000000	5.875611  
1415.000000	6.021499  
1414.000000	5.953884  
1413.000000	5.709695  
1412.000000	5.382156  
1411.000000	5.003142  
1410.000000	4.588294  
1409.000000	4.210257  
1408.000000	3.924250  
1407.000000	3.695201  
1406.000000	3.490185  
1405.000000	3.343534  
1404.000000	3.276014  
1403.000000	3.244996  
1402.000000	3.238511  
1401.000000	3.297996  
1400.000000	3.416442  
1399.000000	3.527235  
1398.000000	3.621220  
1397.000000	3.744959  
1396.000000	3.878569  
1395.000000	3.942799  
1394.000000	3.932905  
1393.000000	3.922009  
1392.000000	3.939056  
1391.000000	3.961038  
1390.000000	4.006147  
1389.000000	4.126453  
1388.000000	4.324102  
1387.000000	4.565930  
1386.000000	4.848432  
1385.000000	5.182528  
1384.000000	5.538392  
1383.000000	5.866241  
1382.000000	6.138992  
1381.000000	6.348586  
1380.000000	6.475663  
1379.000000	6.498789  
1378.000000	6.424021  
1377.000000	6.292986  
1376.000000	6.156706  
1375.000000	6.032514  
1374.000000	5.916762  
1373.000000	5.822443  
1372.000000	5.775475  
1371.000000	5.757522  
1370.000000	5.714774  
1369.000000	5.626296  
1368.000000	5.505299  
1367.000000	5.354523  
1366.000000	5.195879  
1365.000000	5.138182  
1364.000000	5.300927  
1363.000000	5.692172  
1362.000000	6.233453  
1361.000000	6.854343  
1360.000000	7.454729  
1359.000000	7.854485  
1358.000000	7.924175  
1357.000000	7.728123  
1356.000000	7.450914  
1355.000000	7.256269  
1354.000000	7.288336  
1353.000000	7.687020  
1352.000000	8.472371  
1351.000000	9.480047  
1350.000000	10.477614 
1349.000000	11.277389 
1348.000000	11.721348 
1347.000000	11.710929 
1346.000000	11.318540 
1345.000000	10.764765 
1344.000000	10.244178 
1343.000000	9.849786  
1342.000000	9.651994  
1341.000000	9.712648  
1340.000000	9.996843  
1339.000000	10.391068 
1338.000000	10.798764 
1337.000000	11.164522 
1336.000000	11.404204 
1335.000000	11.441731 
1334.000000	11.275076 
1333.000000	10.989594 
1332.000000	10.688400 
1331.000000	10.489225 
1330.000000	10.513377 
1329.000000	10.815525 
1328.000000	11.278796 
1327.000000	11.596965 
1326.000000	11.430287 
1325.000000	10.629701 
1324.000000	9.342217  
1323.000000	7.889342  
1322.000000	6.557655  
1321.000000	5.486869  
1320.000000	4.682540  
1319.000000	4.080319  
1318.000000	3.613352  
1317.000000	3.256750  
1316.000000	3.003597  
1315.000000	2.825546  
1314.000000	2.691984  
1313.000000	2.614665  
1312.000000	2.612853  
1311.000000	2.651524  
1310.000000	2.679014  
1309.000000	2.708005  
1308.000000	2.772092  
1307.000000	2.856850  
1306.000000	2.923798  
1305.000000	3.000164  
1304.000000	3.122520  
1303.000000	3.279066  
1302.000000	3.461718  
1301.000000	3.730607  
1300.000000	4.116821  
1299.000000	4.545688  
1298.000000	4.907822  
1297.000000	5.142569  
1296.000000	5.196642  
1295.000000	5.028462  
1294.000000	4.709935  
1293.000000	4.418587  
1292.000000	4.269337  
1291.000000	4.249811  
1290.000000	4.332184  
1289.000000	4.530024  
1288.000000	4.819464  
1287.000000	5.115962  
1286.000000	5.356526  
1285.000000	5.527901  
1284.000000	5.618143  
1283.000000	5.619573  
1282.000000	5.579495  
1281.000000	5.571436  
1280.000000	5.634236  
1279.000000	5.767941  
1278.000000	5.980181  
1277.000000	6.264972  
1276.000000	6.579947  
1275.000000	6.874465  
1274.000000	7.128691  
1273.000000	7.353758  
1272.000000	7.557439  
1271.000000	7.760620  
1270.000000	8.004665  
1269.000000	8.355593  
1268.000000	8.855295  
1267.000000	9.495019  
1266.000000	10.206961 
1265.000000	10.900878 
1264.000000	11.469054 
1263.000000	11.787772 
1262.000000	11.763453 
1261.000000	11.405301 
1260.000000	10.811448 
1259.000000	10.081839 
1258.000000	9.292364  
1257.000000	8.520698  
1256.000000	7.818984  
1255.000000	7.163763  
1254.000000	6.525850  
1253.000000	5.946922  
1252.000000	5.487751  
1251.000000	5.128145  
1250.000000	4.832863  
1249.000000	4.623103  
1248.000000	4.512929  
1247.000000	4.421448  
1246.000000	4.258251  
1245.000000	4.022860  
1244.000000	3.745961  
1243.000000	3.431081  
1242.000000	3.098821  
1241.000000	2.821350  
1240.000000	2.620911  
1239.000000	2.449965  
1238.000000	2.284431  
1237.000000	2.162098  
1236.000000	2.090001  
1235.000000	2.029228  
1234.000000	1.977133  
1233.000000	1.974725  
1232.000000	2.019190  
1231.000000	2.065229  
1230.000000	2.110862  
1229.000000	2.198958  
1228.000000	2.338838  
1227.000000	2.498388  
1226.000000	2.661657  
1225.000000	2.828741  
1224.000000	2.981352  
1223.000000	3.096723  
1222.000000	3.181290  
1221.000000	3.248906  
1220.000000	3.285217  
1219.000000	3.252673  
1218.000000	3.132891  
1217.000000	2.947211  
1216.000000	2.737760  
1215.000000	2.529716  
1214.000000	2.326297  
1213.000000	2.140140  
1212.000000	1.994299  
1211.000000	1.886796  
1210.000000	1.794028  
1209.000000	1.722693  
1208.000000	1.703143  
1207.000000	1.729822  
1206.000000	1.764845  
1205.000000	1.801872  
1204.000000	1.855587  
1203.000000	1.898574  
1202.000000	1.883864  
1201.000000	1.822185  
1200.000000	1.755738  
1199.000000	1.684880  
1198.000000	1.592373  
1197.000000	1.508307  
1196.000000	1.461815  
1195.000000	1.421141  
1194.000000	1.353931  
1193.000000	1.294159  
1192.000000	1.273488  
1191.000000	1.259946  
1190.000000	1.228785  
1189.000000	1.216483  
1188.000000	1.239848  
1187.000000	1.252961  
1186.000000	1.234769  
1185.000000	1.229572  
1184.000000	1.255440  
1183.000000	1.273560  
1182.000000	1.275205  
1181.000000	1.304960  
1180.000000	1.373457  
1179.000000	1.440501  
1178.000000	1.494264  
1177.000000	1.565980  
1176.000000	1.663279  
1175.000000	1.765036  
1174.000000	1.875090  
1173.000000	2.010726  
1172.000000	2.152872  
1171.000000	2.264094  
1170.000000	2.341961  
1169.000000	2.404356  
1168.000000	2.447366  
1167.000000	2.448320  
1166.000000	2.405905  
1165.000000	2.339363  
1164.000000	2.270960  
1163.000000	2.206158  
1162.000000	2.152752  
1161.000000	2.127671  
1160.000000	2.153587  
1159.000000	2.215528  
1158.000000	2.284431  
1157.000000	2.359342  
1156.000000	2.477574  
1155.000000	2.648282  
1154.000000	2.853417  
1153.000000	3.106975  
1152.000000	3.448987  
1151.000000	3.884768  
1150.000000	4.409289  
1149.000000	5.083703  
1148.000000	5.991363  
1147.000000	7.123160  
1146.000000	8.399915  
1145.000000	9.743022  
1144.000000	11.024856 
1143.000000	12.002205 
1142.000000	12.455892 
1141.000000	12.376308 
1140.000000	11.943507 
1139.000000	11.393427 
1138.000000	10.955142 
1137.000000	10.814356 
1136.000000	10.986948 
1135.000000	11.282062 
1134.000000	11.448001 
1133.000000	11.331105 
1132.000000	10.903048 
1131.000000	10.217165 
1130.000000	9.414815  
1129.000000	8.681178  
1128.000000	8.172202  
1127.000000	7.979202  
1126.000000	8.170056  
1125.000000	8.768391  
1124.000000	9.699082  
1123.000000	10.776591 
1122.000000	11.778926 
1121.000000	12.494754 
1120.000000	12.759089 
1119.000000	12.509298 
1118.000000	11.831617 
1117.000000	10.895252 
1116.000000	9.857177  
1115.000000	8.815622  
1114.000000	7.845854  
1113.000000	7.002210  
1112.000000	6.318092  
1111.000000	5.799674  
1110.000000	5.448293  
1109.000000	5.270934  
1108.000000	5.272746  
1107.000000	5.434870  
1106.000000	5.710887  
1105.000000	6.048512  
1104.000000	6.398415  
1103.000000	6.688284  
1102.000000	6.875014  
1101.000000	6.993985  
1100.000000	7.159423  
1099.000000	7.448244  
1098.000000	7.881712  
1097.000000	8.466029  
1096.000000	9.208321  
1095.000000	10.069346 
1094.000000	11.018967 
1093.000000	12.124061 
1092.000000	13.542938 
1091.000000	15.385890 
1090.000000	17.636466 
1089.000000	20.089578 
1088.000000	22.305679 
1087.000000	23.691534 
1086.000000	23.793244 
1085.000000	22.547602 
1084.000000	20.235586 
1083.000000	17.301106 
1082.000000	14.233756 
1081.000000	11.477255 
1080.000000	9.288668  
1079.000000	7.675337  
1078.000000	6.533336  
1077.000000	5.750131  
1076.000000	5.216026  
1075.000000	4.805874  
1074.000000	4.452061  
1073.000000	4.147338  
1072.000000	3.888916  
1071.000000	3.650164  
1070.000000	3.439116  
1069.000000	3.284549  
1068.000000	3.200674  
1067.000000	3.167366  
1066.000000	3.184843  
1065.000000	3.276801  
1064.000000	3.467583  
1063.000000	3.759217  
1062.000000	4.147386  
1061.000000	4.629015  
1060.000000	5.197525  
1059.000000	5.828857  
1058.000000	6.507992  
1057.000000	7.256984  
1056.000000	8.111977  
1055.000000	9.004783  
1054.000000	9.717774  
1053.000000	9.983396  
1052.000000	9.664416  
1051.000000	8.835864  
1050.000000	7.751178  
1049.000000	6.733250  
1048.000000	6.031656  
1047.000000	5.728030  
1046.000000	5.776810  
1045.000000	6.114101  
1044.000000	6.672906  
1043.000000	7.317996  
1042.000000	7.860922  
1041.000000	8.167147  
1040.000000	8.196640  
1039.000000	7.966852  
1038.000000	7.542729  
1037.000000	7.058167  
1036.000000	6.636953  
1035.000000	6.332874  
1034.000000	6.147146  
1033.000000	6.091547  
1032.000000	6.131434  
1031.000000	6.135702  
1030.000000	5.983304  
1029.000000	5.665922  
1028.000000	5.281043  
1027.000000	4.938173  
1026.000000	4.766869  
1025.000000	4.903054  
1024.000000	5.438375  
1023.000000	6.363892  
1022.000000	7.569503  
1021.000000	8.793997  
1020.000000	9.603953  
1019.000000	9.594249  
1018.000000	8.690571  
1017.000000	7.231187  
1016.000000	5.713415  
1015.000000	4.493212  
1014.000000	3.674101  
1013.000000	3.196597  
1012.000000	2.964138  
1011.000000	2.913403  
1010.000000	3.008937  
1009.000000	3.239345  
1008.000000	3.597235  
1007.000000	4.040837  
1006.000000	4.452967  
1005.000000	4.694652  
1004.000000	4.680228  
1003.000000	4.405546  
1002.000000	3.932976  
1001.000000	3.371167  
1000.000000	2.853488  
999.000000	 2.446413  
998.000000	 2.145624  
997.000000	 1.927995  
996.000000	 1.794600  
995.000000	 1.733136  
994.000000	 1.705765  
993.000000	 1.697707  
992.000000	 1.721119  
991.000000	 1.760363  
990.000000	 1.768326  
989.000000	 1.728487  
988.000000	 1.658487  
987.000000	 1.561641  
986.000000	 1.428747  
985.000000	 1.288366  
984.000000	 1.179957  
983.000000	 1.098823  
982.000000	 1.018929  
981.000000	 0.953483  
980.000000	 0.926470  
979.000000	 0.918221  
978.000000	 0.893902  
977.000000	 0.859928  
976.000000	 0.838518  
975.000000	 0.826430  
974.000000	 0.814938  
973.000000	 0.818896  
972.000000	 0.838541  
971.000000	 0.849509  
970.000000	 0.842070  
969.000000	 0.848317  
968.000000	 0.882863  
967.000000	 0.927519  
966.000000	 0.968766  
965.000000	 1.023864  
964.000000	 1.108169  
963.000000	 1.217150  
962.000000	 1.351094  
961.000000	 1.533198  
960.000000	 1.796364  
959.000000	 2.170586  
958.000000	 2.682757  
957.000000	 3.352570  
956.000000	 4.152297  
955.000000	 4.951810  
954.000000	 5.529999  
953.000000	 5.691432  
952.000000	 5.395913  
951.000000	 4.764461  
950.000000	 3.987956  
949.000000	 3.238177  
948.000000	 2.624154  
947.000000	 2.171492  
946.000000	 1.841020  
945.000000	 1.596236  
944.000000	 1.425623  
943.000000	 1.313805  
942.000000	 1.224088  
941.000000	 1.144647  
940.000000	 1.091217  
939.000000	 1.062083  
938.000000	 1.029753  
937.000000	 0.997376  
936.000000	 0.989890  
935.000000	 1.001906  
934.000000	 0.999116  
933.000000	 0.989508  
932.000000	 1.008486  
931.000000	 1.054191  
930.000000	 1.097178  
929.000000	 1.140117  
928.000000	 1.211643  
927.000000	 1.305961  
926.000000	 1.410961  
925.000000	 1.553034  
924.000000	 1.783609  
923.000000	 2.123641  
922.000000	 2.595567  
921.000000	 3.257298  
920.000000	 4.176044  
919.000000	 5.338597  
918.000000	 6.595873  
917.000000	 7.672333  
916.000000	 8.240079  
915.000000	 8.094525  
914.000000	 7.291913  
913.000000	 6.136965  
912.000000	 4.989361  
911.000000	 4.076457  
910.000000	 3.446912  
909.000000	 3.054285  
908.000000	 2.850127  
907.000000	 2.816247  
906.000000	 2.947592  
905.000000	 3.252601  
904.000000	 3.751373  
903.000000	 4.429888  
902.000000	 5.166101  
901.000000	 5.737066  
900.000000	 5.926108  
899.000000	 5.640077  
898.000000	 4.971981  
897.000000	 4.136562  
896.000000	 3.375101  
895.000000	 2.796912  
894.000000	 2.392172  
893.000000	 2.097439  
892.000000	 1.902651  
891.000000	 1.804804  
890.000000	 1.781535  
889.000000	 1.817750  
888.000000	 1.919841  
887.000000	 2.090191  
886.000000	 2.311635  
885.000000	 2.617073  
884.000000	 3.087949  
883.000000	 3.806376  
882.000000	 4.830813  
881.000000	 6.228828  
880.000000	 8.008694  
879.000000	 9.985709  
878.000000	 11.742925 
877.000000	 12.792539 
876.000000	 12.807297 
875.000000	 11.793565 
874.000000	 10.095143 
873.000000	 8.227324  
872.000000	 6.598138  
871.000000	 5.359053  
870.000000	 4.460597  
869.000000	 3.818440  
868.000000	 3.364109  
867.000000	 3.047013  
866.000000	 2.830815  
865.000000	 2.706623  
864.000000	 2.680873  
863.000000	 2.727794  
862.000000	 2.843594  
861.000000	 3.040671  
860.000000	 3.363466  
859.000000	 3.853416  
858.000000	 4.580545  
857.000000	 5.648779  
856.000000	 7.172036  
855.000000	 9.195184  
854.000000	 11.571693 
853.000000	 13.871264 
852.000000	 15.454053 
851.000000	 15.746235 
850.000000	 14.582753 
849.000000	 12.351560 
848.000000	 9.787178  
847.000000	 7.528996  
846.000000	 5.819678  
845.000000	 4.592776  
844.000000	 3.715538  
843.000000	 3.103590  
842.000000	 2.656292  
841.000000	 2.296161  
840.000000	 1.999735  
839.000000	 1.783156  
838.000000	 1.620221  
837.000000	 1.489973  
836.000000	 1.389884  
835.000000	 1.314973  
834.000000	 1.233005  
833.000000	 1.138591  
832.000000	 1.070404  
831.000000	 1.033544  
830.000000	 0.999999  
829.000000	 0.952768  
828.000000	 0.915551  
827.000000	 0.897812  
826.000000	 0.881981  
825.000000	 0.860691  
824.000000	 0.847935  
823.000000	 0.846052  
822.000000	 0.841522  
821.000000	 0.833129  
820.000000	 0.829839  
819.000000	 0.829935  
818.000000	 0.827074  
817.000000	 0.827598  
816.000000	 0.836753  
815.000000	 0.843429  
814.000000	 0.834488  
813.000000	 0.816369  
812.000000	 0.806522  
811.000000	 0.812506  
810.000000	 0.826001  
809.000000	 0.838851  
808.000000	 0.855994  
807.000000	 0.885653  
806.000000	 0.916004  
805.000000	 0.926923  
804.000000	 0.924491  
803.000000	 0.934338  
802.000000	 0.955271  
801.000000	 0.964784  
800.000000	 0.969338  
799.000000	 0.996279  
798.000000	 1.038193  
797.000000	 1.067137  
796.000000	 1.097393  
795.000000	 1.166248  
794.000000	 1.264619  
793.000000	 1.354765  
792.000000	 1.441383  
791.000000	 1.558947  
790.000000	 1.712131  
789.000000	 1.893091  
788.000000	 2.117776  
787.000000	 2.393269  
786.000000	 2.678513  
785.000000	 2.936768  
784.000000	 3.174376  
783.000000	 3.398180  
782.000000	 3.578329  
781.000000	 3.702473  
780.000000	 3.801441  
779.000000	 3.890180  
778.000000	 3.934454  
777.000000	 3.905391  
776.000000	 3.811240  
775.000000	 3.660798  
774.000000	 3.451395  
773.000000	 3.203964  
772.000000	 2.959132  
771.000000	 2.730154  
770.000000	 2.505540  
769.000000	 2.294015  
768.000000	 2.129387  
767.000000	 2.024197  
766.000000	 1.953172  
765.000000	 1.883530  
764.000000	 1.809096  
763.000000	 1.746511  
762.000000	 1.704859  
761.000000	 1.670289  
760.000000	 1.626896  
759.000000	 1.581287  
758.000000	 1.545381  
757.000000	 1.518106  
756.000000	 1.494479  
755.000000	 1.479315  
754.000000	 1.464915  
753.000000	 1.435565  
752.000000	 1.403522  
751.000000	 1.403760  
750.000000	 1.431870  
749.000000	 1.445269  
748.000000	 1.433396  
747.000000	 1.427197  
746.000000	 1.431727  
745.000000	 1.420831  
744.000000	 1.399493  
743.000000	 1.398158  
742.000000	 1.408004  
741.000000	 1.399254  
740.000000	 1.389169  
739.000000	 1.409864  
738.000000	 1.436591  
737.000000	 1.430392  
736.000000	 1.415753  
735.000000	 1.431059  
734.000000	 1.453495  
733.000000	 1.450705  
732.000000	 1.450729  
731.000000	 1.484560  
730.000000	 1.521372  
729.000000	 1.525330  
728.000000	 1.517486  
727.000000	 1.524925  
726.000000	 1.533246  
725.000000	 1.531577  
724.000000	 1.544117  
723.000000	 1.582574  
722.000000	 1.622748  
721.000000	 1.648616  
720.000000	 1.673579  
719.000000	 1.705741  
718.000000	 1.734662  
717.000000	 1.759576  
716.000000	 1.798915  
715.000000	 1.863336  
714.000000	 1.939940  
713.000000	 2.007341  
712.000000	 2.061796  
711.000000	 2.120375  
710.000000	 2.197122  
709.000000	 2.282404  
708.000000	 2.361559  
707.000000	 2.434420  
706.000000	 2.497148  
705.000000	 2.527546  
704.000000	 2.521681  
703.000000	 2.506732  
702.000000	 2.486729  
701.000000	 2.427077  
700.000000	 2.328085  
699.000000	 2.242445  
698.000000	 2.184557  
697.000000	 2.108764  
696.000000	 2.011203  
695.000000	 1.948881  
694.000000	 1.930308  
693.000000	 1.897692  
692.000000	 1.840066  
691.000000	 1.808810  
690.000000	 1.810956  
689.000000	 1.800060  
688.000000	 1.774740  
687.000000	 1.774001  
686.000000	 1.787281  
685.000000	 1.776242  
684.000000	 1.762485  
683.000000	 1.789331  
682.000000	 1.834869  
681.000000	 1.852822  
680.000000	 1.856231  
679.000000	 1.874828  
678.000000	 1.887679  
677.000000	 1.870512  
676.000000	 1.852512  
675.000000	 1.859593  
674.000000	 1.863574  
673.000000	 1.839637  
672.000000	 1.813840  
671.000000	 1.810240  
670.000000	 1.811408  
669.000000	 1.801300  
668.000000	 1.795244  
667.000000	 1.802873  
666.000000	 1.807045  
665.000000	 1.793313  
664.000000	 1.775622  
663.000000	 1.775598  
662.000000	 1.795554  
661.000000	 1.816868  
660.000000	 1.831603  
659.000000	 1.860785  
658.000000	 1.924872  
657.000000	 2.012181  
656.000000	 2.114105  
655.000000	 2.263712  
654.000000	 2.488446  
653.000000	 2.760720  
652.000000	 3.041005  
651.000000	 3.325939  
650.000000	 3.578352  
649.000000	 3.705644  
648.000000	 3.663611  
647.000000	 3.525686  
646.000000	 3.368282  
645.000000	 3.195071  
644.000000	 3.024530  
643.000000	 2.935385  
642.000000	 2.966785  
641.000000	 3.079771  
640.000000	 3.267598  
639.000000	 3.578996  
638.000000	 4.009938  
637.000000	 4.486179  
636.000000	 4.964470  
635.000000	 5.423569  
634.000000	 5.770087  
633.000000	 5.887389  
632.000000	 5.776381  
631.000000	 5.523419  
630.000000	 5.174040  
629.000000	 4.753446  
628.000000	 4.353833  
627.000000	 4.059600  
626.000000	 3.838658  
625.000000	 3.620958  
624.000000	 3.416204  
623.000000	 3.270530  
622.000000	 3.166580  
621.000000	 3.066802  
620.000000	 2.980113  
619.000000	 2.934479  
618.000000	 2.917313  
617.000000	 2.901959  
616.000000	 2.885198  
615.000000	 2.879381  
614.000000	 2.888464  
613.000000	 2.908825  
612.000000	 2.942800  
611.000000	 2.997636  
610.000000	 3.069424  
609.000000	 3.130602  
608.000000	 3.155636  
607.000000	 3.153967  
606.000000	 3.148508  
605.000000	 3.133773  
604.000000	 3.095889  
603.000000	 3.054451  
602.000000	 3.027963  
601.000000	 2.987384  
600.000000	 2.909684  
599.000000	 2.833247  
598.000000	 2.790021  
597.000000	 2.740669  
596.000000	 2.655529  
595.000000	 2.579975  
594.000000	 2.542686  
593.000000	 2.495193  
592.000000	 2.421903  
591.000000	 2.390003  
590.000000	 2.416729  
589.000000	 2.421855  
588.000000	 2.375459  
587.000000	 2.345418  
586.000000	 2.346301  
585.000000	 2.306818  
584.000000	 2.222323  
583.000000	 2.175903  
582.000000	 2.185273  
581.000000	 2.190399  
580.000000	 2.192020  
579.000000	 2.242708  
578.000000	 2.316832  
577.000000	 2.348399  
576.000000	 2.368664  
575.000000	 2.452802  
574.000000	 2.586603  
573.000000	 2.709650  
572.000000	 2.842617  
571.000000	 3.026413  
570.000000	 3.225350  
569.000000	 3.370809  
568.000000	 3.461813  
567.000000	 3.525638  
566.000000	 3.550672  
565.000000	 3.531622  
564.000000	 3.514218  
563.000000	 3.565287  
562.000000	 3.715467  
561.000000	 3.978395  
560.000000	 4.371643  
559.000000	 4.913282  
558.000000	 5.588126  
557.000000	 6.327915  
556.000000	 7.007074  
555.000000	 7.471060  
554.000000	 7.568216  
553.000000	 7.206749  
552.000000	 6.441020  
551.000000	 5.489897  
550.000000	 4.590034  
549.000000	 3.838038  
548.000000	 3.234553  
547.000000	 2.799606  
546.000000	 2.535223  
545.000000	 2.344346  
544.000000	 2.149486  
543.000000	 1.993131  
542.000000	 1.923680  
541.000000	 1.872754  
540.000000	 1.789426  
539.000000	 1.736855  
538.000000	 1.749324  
537.000000	 1.740741  
536.000000	 1.670098  
535.000000	 1.629161  
534.000000	 1.659131  
533.000000	 1.680517  
532.000000	 1.655554  
531.000000	 1.650547  
530.000000	 1.674342  
529.000000	 1.660108  
528.000000	 1.622796  
527.000000	 1.646208  
526.000000	 1.710057  
525.000000	 1.720571  
524.000000	 1.692581  
523.000000	 1.712465  
522.000000	 1.762700  
521.000000	 1.764225  
520.000000	 1.738595  
519.000000	 1.758170  
518.000000	 1.801967  
517.000000	 1.804995  
516.000000	 1.782941  
515.000000	 1.784300  
514.000000	 1.793122  
513.000000	 1.772952  
512.000000	 1.745629  
511.000000	 1.751732  
510.000000	 1.787781  
509.000000	 1.828074  
508.000000	 1.868414  
507.000000	 1.915359  
506.000000	 1.963901  
505.000000	 2.001833  
504.000000	 2.030658  
503.000000	 2.071166  
502.000000	 2.135205  
501.000000	 2.199769  
500.000000	 2.237987  
499.000000	 2.273702  
498.000000	 2.340316  
497.000000	 2.425551  
496.000000	 2.508544  
495.000000	 2.645468  
494.000000	 2.867293  
493.000000	 3.102803  
492.000000	 3.283691  
491.000000	 3.483414  
490.000000	 3.794765  
489.000000	 4.178619  
488.000000	 4.596948  
487.000000	 5.145025  
486.000000	 5.925655  
485.000000	 6.918168  
484.000000	 8.134078  
483.000000	 9.697675  
482.000000	 11.671543 
481.000000	 13.892817 
480.000000	 16.116094 
479.000000	 18.066000 
478.000000	 19.360756 
477.000000	 19.647979 
476.000000	 18.975186 
475.000000	 17.826581 
474.000000	 16.738843 
473.000000	 16.012978 
472.000000	 15.694475 
471.000000	 15.547561 
470.000000	 15.082001 
469.000000	 13.944840 
468.000000	 12.281227 
467.000000	 10.544610 
466.000000	 9.010314  
465.000000	 7.722711  
464.000000	 6.706237  
463.000000	 5.994367  
462.000000	 5.490231  
461.000000	 5.065751  
460.000000	 4.707121  
459.000000	 4.451441  
458.000000	 4.273891  
457.000000	 4.110932  
456.000000	 3.958392  
455.000000	 3.846907  
454.000000	 3.792572  
453.000000	 3.793549  
452.000000	 3.867387  
451.000000	 4.053640  
450.000000	 4.378390  
449.000000	 4.790163  
448.000000	 5.198192  
447.000000	 5.542206  
446.000000	 5.768680  
445.000000	 5.770182  
444.000000	 5.490088  
443.000000	 5.068254  
442.000000	 4.732012  
441.000000	 4.573655  
440.000000	 4.577803  
439.000000	 4.763054  
438.000000	 5.078434  
437.000000	 5.282616  
436.000000	 5.161690  
435.000000	 4.774832  
434.000000	 4.299378  
433.000000	 3.796362  
432.000000	 3.319025  
431.000000	 3.015136  
430.000000	 2.925848  
429.000000	 2.889585  
428.000000	 2.833056  
427.000000	 2.891421  
426.000000	 3.116726  
425.000000	 3.364014  
424.000000	 3.572916  
423.000000	 3.837966  
422.000000	 4.115581  
421.000000	 4.199934  
420.000000	 4.056644  
419.000000	 3.854203  
418.000000	 3.661894  
417.000000	 3.406596  
416.000000	 3.137159  
415.000000	 2.997660  
414.000000	 2.984762  
413.000000	 2.990865  
412.000000	 3.026986  
411.000000	 3.179550  
410.000000	 3.413414  
409.000000	 3.667736  
408.000000	 4.003477  
407.000000	 4.531359  
406.000000	 5.251622  
405.000000	 6.150221  
404.000000	 7.299828  
403.000000	 8.766698  
402.000000	 10.450816 
401.000000	 12.085771 
400.000000	 13.348340 
399.000000	 13.946056 
398.000000	 13.719296 
397.000000	 12.720084 
396.000000	 11.242318 
395.000000	 9.714221  
394.000000	 8.481907  
393.000000	 7.636570  
392.000000	 7.122707  
391.000000	 6.925868  
390.000000	 7.063770  
389.000000	 7.408261  
388.000000	 7.802867  
387.000000	 8.258509  
386.000000	 8.868026  
385.000000	 9.562206  
384.000000	 10.286521 
383.000000	 11.221957 
382.000000	 12.595176 
381.000000	 14.370179 
380.000000	 16.356897 
379.000000	 18.371891 
378.000000	 19.964003 
377.000000	 20.445680 
376.000000	 19.451165 
375.000000	 17.368698 
374.000000	 14.843511 
373.000000	 12.344408 
372.000000	 10.195183 
371.000000	 8.693504  
370.000000	 7.837915  
369.000000	 7.352852  
368.000000	 7.122826  
367.000000	 7.280945  
366.000000	 7.872128  
365.000000	 8.819198  
364.000000	 10.257840 
363.000000	 12.516808 
362.000000	 15.712666 
361.000000	 19.622111 
360.000000	 23.829126 
359.000000	 27.619218 
358.000000	 29.987454 
357.000000	 30.149912 
356.000000	 28.194522 
355.000000	 24.919891 
354.000000	 21.231889 
353.000000	 17.747354 
352.000000	 14.798378 
351.000000	 12.475347 
350.000000	 10.671901 
349.000000	 9.252262  
348.000000	 8.134293  
347.000000	 7.299709  
346.000000	 6.694960  
345.000000	 6.246852  
344.000000	 5.885863  
343.000000	 5.630230  
342.000000	 5.508947  
341.000000	 5.484151  
340.000000	 5.473375  
339.000000	 5.505394  
338.000000	 5.643224  
337.000000	 5.810189  
336.000000	 5.882096  
335.000000	 5.913400  
334.000000	 6.013488  
333.000000	 6.084227  
332.000000	 5.980587  
331.000000	 5.814981  
330.000000	 5.741810  
329.000000	 5.637669  
328.000000	 5.355215  
327.000000	 5.063152  
326.000000	 4.942083  
325.000000	 4.842519  
324.000000	 4.611396  
323.000000	 4.411840  
322.000000	 4.373216  
321.000000	 4.312300  
320.000000	 4.124999  
319.000000	 4.010820  
318.000000	 4.045486  
317.000000	 4.003286  
316.000000	 3.818273  
315.000000	 3.722739  
314.000000	 3.775811  
313.000000	 3.759837  
312.000000	 3.638052  
311.000000	 3.614950  
310.000000	 3.700494  
309.000000	 3.688812  
308.000000	 3.574132  
307.000000	 3.543066  
306.000000	 3.593564  
305.000000	 3.570413  
304.000000	 3.495073  
303.000000	 3.501486  
302.000000	 3.556942  
301.000000	 3.554272  
300.000000	 3.549647  
299.000000	 3.659176  
298.000000	 3.845286  
297.000000	 3.994035  
296.000000	 4.089426  
295.000000	 4.177975  
294.000000	 4.241895  
293.000000	 4.206776  
292.000000	 4.048871  
291.000000	 3.849339  
290.000000	 3.705096  
289.000000	 3.603315  
288.000000	 3.477835  
287.000000	 3.379154  
286.000000	 3.406786  
285.000000	 3.482866  
284.000000	 3.441834  
283.000000	 3.329467  
282.000000	 3.303909  
281.000000	 3.291273  
280.000000	 3.111529  
279.000000	 2.863097  
278.000000	 2.749276  
277.000000	 2.677583  
276.000000	 2.472281  
275.000000	 2.288603  
274.000000	 2.319645  
273.000000	 2.392077  
272.000000	 2.316212  
271.000000	 2.288174  
270.000000	 2.489995  
269.000000	 2.706432  
268.000000	 2.782320  
267.000000	 2.960753  
266.000000	 3.388023  
265.000000	 3.813099  
264.000000	 4.130434  
263.000000	 4.605054  
262.000000	 5.285286  
261.000000	 5.811548  
260.000000	 6.022572  
259.000000	 6.119823  
258.000000	 6.118464  
257.000000	 5.787086  
256.000000	 5.192184  
255.000000	 4.689574  
254.000000	 4.350924  
253.000000	 3.962993  
252.000000	 3.532505  
251.000000	 3.267717  
250.000000	 3.144907  
249.000000	 2.973246  
248.000000	 2.761077  
247.000000	 2.653074  
246.000000	 2.622890  
245.000000	 2.541446  
244.000000	 2.411103  
243.000000	 2.330875  
242.000000	 2.316188  
241.000000	 2.291011  
240.000000	 2.215218  
239.000000	 2.138090  
238.000000	 2.124309  
237.000000	 2.138996  
236.000000	 2.104640  
235.000000	 2.067470  
234.000000	 2.142930  
233.000000	 2.271437  
232.000000	 2.287864  
231.000000	 2.241945  
230.000000	 2.314424  
229.000000	 2.432036  
228.000000	 2.376508  
227.000000	 2.227210  
226.000000	 2.208852  
225.000000	 2.210736  
224.000000	 2.008247  
223.000000	 1.779079  
222.000000	 1.792907  
221.000000	 1.861691  
220.000000	 1.720285  
219.000000	 1.584386  
218.000000	 1.696157  
217.000000	 1.793217  
216.000000	 1.647830  
215.000000	 1.567220  
214.000000	 1.771688  
213.000000	 1.923394  
212.000000	 1.816582  
211.000000	 1.806473  
210.000000	 2.077245  
209.000000	 2.272772  
208.000000	 2.239537  
207.000000	 2.316403  
206.000000	 2.592802  
205.000000	 2.714991  
204.000000	 2.619528  
203.000000	 2.651524  
202.000000	 2.853918  
201.000000	 2.903652  
200.000000	 2.775287  

