92.376950 0.000000
92.859067 0.002962
93.341183 0.523420
93.823300 1.593851
94.305417 2.448435
94.787534 2.971592
95.269650 3.131798
95.751767 3.087103
96.233884 2.875446
96.716001 3.017447
97.198117 3.393997
97.680234 2.757261
98.162351 1.931929
98.644468 1.379168
99.126584 1.190882
99.608701 0.939281
100.090818 0.535875
100.572935 0.128727
101.055051 0.200693
101.537168 0.445818
102.019285 0.555109
102.501402 0.214241
102.983518 1.010258
103.465635 2.293152
103.947752 3.486866
104.429869 4.641779
104.911985 5.887566
105.394102 7.344334
105.876219 9.063530
106.358335 10.541920
106.840452 11.794830
107.322569 12.851050
107.804686 13.714090
108.286802 14.392150
108.768919 14.908320
109.251036 15.192840
109.733153 15.211360
110.215269 15.438340
110.697386 15.894290
111.179503 16.599939
111.661620 17.596170
112.143736 18.884720
112.625853 20.488510
113.107970 22.468990
113.590087 24.781919
114.072203 27.191339
114.554320 29.431400
115.036437 31.534809
115.518554 33.981030
116.000670 37.038651
116.482787 40.390079
116.964904 43.735710
117.447021 47.041019
117.929137 50.743011
118.411254 55.475060
118.893371 61.446732
119.375487 68.014931
119.857604 74.475189
120.339721 81.704277
120.821838 90.312073
121.303954 100.554001
121.786071 112.392502
122.268188 125.843597
122.750305 139.947098
123.232421 157.142502
123.714538 178.182907
124.196655 202.548904
124.678772 229.824203
125.160888 260.793091
125.643005 294.396515
126.125122 319.840210
126.607239 343.281708
127.089355 355.498199
127.571472 350.740295
128.053589 330.343414
128.535706 300.888092
129.017822 263.772614
129.499939 220.571594
129.982056 181.985107
130.464173 147.818405
130.946289 118.441597
131.428406 94.520271
131.910523 76.451607
132.392639 62.197849
132.874756 51.480061
133.356873 43.284081
133.838990 36.555969
134.321106 31.086691
134.803223 26.775740
135.285340 23.238251
135.767457 20.706730
136.249573 18.747299
136.731690 17.216270
137.213807 16.020081
137.695924 14.960710
138.178040 13.826920
138.660157 12.578660
139.142274 11.686900
139.624391 11.452080
140.106507 11.339330
140.588624 11.228940
141.070741 11.071780
141.552858 10.825850
142.034974 10.429510
142.517091 9.807941
142.999208 9.215977
143.481325 8.557106
143.963441 7.984856
144.445558 7.656654
144.927675 7.593769
145.409791 7.615810
145.891908 7.423283
146.374025 6.837868
146.856142 6.355404
147.338258 6.161228
147.820375 6.025932
148.302492 5.608967
148.784609 4.749004
149.266725 3.713406
149.748842 3.095215
150.230959 2.976917
150.713076 2.797874
151.195192 2.274269
151.677309 1.507542
152.159426 0.822758
152.641543 0.321014
153.123659 0.004845
153.605776 0.167530
154.087893 0.083778
154.570010 0.090107
155.052126 0.643875
155.534243 1.782051
156.016360 2.533730
156.498477 2.047916
156.980593 1.237846
157.462710 0.876972
157.944827 1.206535
158.426943 1.788383
158.909060 1.953484
159.391177 1.536980
159.873294 1.074497
160.355410 0.635036
160.837527 0.209377
161.319644 0.158859
161.801761 0.451046
162.283877 0.733429
162.765994 1.213039
163.248111 2.130020
163.730228 2.930557
164.212344 3.365585
164.694461 3.690723
165.176578 4.250504
165.658695 5.260132
166.140811 6.622143
166.622928 7.715446
167.105045 8.318993
167.587162 8.898506
168.069278 9.510338
168.551395 10.168900
169.033512 10.867340
169.515629 11.581600
169.997745 12.336140
170.479862 13.369920
170.961979 14.980410
171.444095 16.527000
171.926212 17.627661
172.408329 18.360769
172.890446 19.121149
173.372562 20.147350
173.854679 21.476540
174.336796 23.050671
174.818913 25.219721
175.301029 27.401180
175.783146 28.992849
176.265263 29.957609
176.747380 30.973829
177.229496 32.456291
177.711613 34.385948
178.193730 36.715618
178.675847 39.787529
179.157963 43.136452
179.640080 46.063389
180.122197 48.427559
180.604314 50.741100
181.086430 53.304089
181.568547 56.033310
182.050664 58.772869
182.532781 61.279961
183.014897 63.759491
183.497014 66.968849
183.979131 71.417526
184.461247 75.821663
184.943364 79.472122
185.425481 82.695641
185.907598 86.070442
186.389714 89.912621
186.871831 94.222061
187.353948 98.900002
187.836065 104.417503
188.318181 109.850700
188.800298 114.764503
189.282415 119.378304
189.764532 124.145103
190.246648 129.378403
190.728765 135.105896
191.210882 141.155304
191.692999 148.053604
192.175115 154.807999
192.657232 160.798798
193.139349 166.286697
193.621466 172.050598
194.103582 178.766403
194.585699 186.604401
195.067816 194.268204
195.549933 201.649094
196.032049 209.005493
196.514166 216.630798
196.996283 224.403503
197.478399 231.862701
197.960516 238.440201
198.442633 243.946594
198.924750 250.141098
199.406866 257.806396
199.888983 265.493988
200.371100 272.418610
200.853217 278.481903
201.335333 283.733185
201.817450 288.220490
202.299567 291.844696
202.781684 294.741394
203.263800 297.134094
203.745917 298.670898
204.228034 298.938385
204.710151 297.873993
205.192267 295.960297
205.674384 293.542114
206.156501 290.595886
206.638618 286.904388
207.120734 281.993408
207.602851 276.472595
208.084968 271.251099
208.567085 266.494598
209.049201 261.555115
209.531318 255.945404
210.013435 249.778503
210.495551 243.135498
210.977668 235.831497
211.459785 228.074005
211.941902 220.257599
212.424018 212.392502
212.906135 204.523895
213.388252 196.707901
213.870369 188.895599
214.352485 180.982407
214.834602 172.723602
215.316719 164.304703
215.798836 156.607101
216.280952 149.785400
216.763069 143.488907
217.245186 137.711395
217.727303 132.264404
218.209419 126.786201
218.691536 120.995300
219.173653 114.983101
219.655770 109.386299
220.137886 104.331299
220.620003 99.633263
221.102120 95.291351
221.584237 91.240936
222.066353 87.362396
222.548470 83.602341
223.030587 79.969582
223.512703 76.489540
223.994820 73.280457
224.476937 70.129852
224.959054 66.906898
225.441170 63.720741
225.923287 60.761360
226.405404 58.137569
226.887521 55.839771
227.369637 53.595612
227.851754 51.339561
228.333871 49.191978
228.815988 47.246449
229.298104 45.458500
229.780221 43.761620
230.262338 42.100540
230.744455 40.467369
231.226571 38.848579
231.708688 37.188160
232.190805 35.588650
232.672922 34.095890
233.155038 32.682621
233.637155 31.262911
234.119272 29.765680
234.601389 28.228849
235.083505 26.971979
235.565622 26.083830
236.047739 25.292570
236.529855 24.524771
237.011972 23.798080
237.494089 23.177570
237.976206 22.736080
238.458322 22.405849
238.940439 21.828770
239.422556 20.678989
239.904673 19.668360
240.386789 19.187180
240.868906 19.046341
241.351023 18.758930
241.833140 18.037479
242.315256 17.066130
242.797373 16.387251
243.279490 16.071810
243.761607 15.888550
244.243723 15.826460
244.725840 15.828330
245.207957 15.727810
245.690074 15.452270
246.172190 15.053940
246.654307 14.609530
247.136424 14.061570
247.618541 13.575630
248.100657 13.278020
248.582774 13.124340
249.064891 12.943240
249.547007 12.666070
250.029124 12.345940
250.511241 12.066790
250.993358 11.837130
251.475474 11.621040
251.957591 11.310660
252.439708 10.964260
252.921825 10.857560
253.403941 11.168980
253.886058 11.622440
254.368175 11.946000
254.850292 12.148030
255.332408 12.226970
255.814525 12.069560
256.296642 11.743690
256.778759 11.588000
257.260875 11.648670
257.742992 11.938780
258.225109 12.405440
258.707226 13.049780
259.189342 13.893430
259.671459 15.020070
260.153576 16.383450
260.635693 17.772079
261.117809 19.312080
261.599926 20.654711
262.082043 21.743670
262.564159 22.531031
263.046276 22.870701
263.528393 22.688379
264.010510 21.985500
264.492626 20.712820
264.974743 18.604059
265.456860 16.269661
265.938977 13.832120
266.421093 11.419750
266.903210 9.301344
267.385327 7.668400
267.867444 6.454929
268.349560 5.354063
268.831677 4.291023
269.313794 3.488674
269.795911 3.184738
270.278027 3.120701
270.760144 2.872555
271.242261 2.134579
271.724378 1.141757
272.206494 0.752880
272.688611 1.461661
273.170728 1.952078
273.652845 1.762074
274.134961 1.232466
274.617078 0.738334
275.099195 0.441311
275.581311 0.287018
276.063428 0.146737
276.545545 0.010624
277.027662 0.090563
277.509778 0.142991
277.991895 0.169868
278.474012 0.184782
278.956129 0.193686
279.438245 0.209524
279.920362 0.267506
280.402479 0.413505
280.884596 0.499741
281.366712 0.448202
281.848829 0.381716
282.330946 0.406931
282.813063 0.543699
283.295179 0.711961
283.777296 0.804860
284.259413 0.835605
284.741530 0.746306
285.223646 0.364755
285.705763 0.009265
286.187880 0.111202
286.669997 0.014458
287.152113 0.243243
287.634230 0.425014
288.116347 0.558196
288.598463 0.638939
289.080580 0.622510
289.562697 0.597894
290.044814 0.609143
290.526930 0.651738
291.009047 0.694306
291.491164 0.711763
291.973281 0.705062
292.455397 0.658582
292.937514 0.526894
293.419631 0.401419
293.901748 0.291901
294.383864 0.211664
294.865981 0.190553
295.348098 0.260614
295.830215 0.409376
296.312331 0.458637
296.794448 0.321086
297.276565 0.171497
297.758682 0.021816
298.240798 0.115213
298.722915 0.229211
299.205032 0.315349
299.687149 0.369219
300.169265 0.370699
300.651382 0.198355
301.133499 0.124147
301.615615 0.285710
302.097732 0.510058
302.579849 0.585713
303.061966 0.432236
303.544082 0.170243
304.026199 0.053415
304.508316 0.201014
304.990433 0.328513
305.472549 0.417786
305.954666 0.495596
306.436783 0.602959
306.918900 0.741983
307.401016 0.854821
307.883133 0.849960
308.365250 0.650109
308.847367 0.546606
309.329483 0.551139
309.811600 0.614163
310.293717 0.757699
310.775834 0.960555
311.257950 1.135650
311.740067 1.169698
312.222184 1.001157
312.704301 0.961783
313.186417 1.178488
313.668534 1.402831
314.150651 1.518586
314.632767 1.558189
315.114884 1.625422
315.597001 1.797628
316.079118 2.055105
316.561234 2.234036
317.043351 2.255169
317.525468 2.296076
318.007585 2.444373
318.489701 2.622381
318.971818 2.709703
319.453935 2.637784
319.936052 2.458344
320.418168 2.334465
320.900285 2.266986
321.382402 2.267158
321.864519 2.377269
322.346635 2.533287
322.828752 2.701266
323.310869 2.861608
323.792986 2.967382
324.275102 2.916268
324.757219 2.506944
325.239336 2.339227
325.721453 2.587116
326.203569 2.911213
326.685686 3.094984
327.167803 3.106344
327.649919 3.028766
328.132036 2.936244
328.614153 2.800798
329.096270 2.797790
329.578386 2.964864
330.060503 3.207444
330.542620 3.543747
331.024737 3.928655
331.506853 4.270231
331.988970 4.499664
332.471087 4.621043
332.953204 4.698930
333.435320 4.512393
333.917437 4.527274
334.399554 4.925349
334.881671 5.556393
335.363787 6.260141
335.845904 6.959629
336.328021 7.588508
336.810138 7.913567
337.292254 7.657869
337.774371 7.494750
338.256488 7.450308
338.738605 7.519889
339.220721 7.747386
339.702838 8.128113
340.184955 8.548253
340.667071 8.823348
341.149188 8.853465
341.631305 8.986168
342.113422 9.162498
342.595538 9.484733
343.077655 10.063170
343.559772 10.871700
344.041889 11.783660
344.524005 12.692040
345.006122 13.591120
345.488239 14.461030
345.970356 15.079150
346.452472 15.907930
346.934589 17.169399
347.416706 18.733110
347.898823 20.302919
348.380939 21.636520
348.863056 22.929581
349.345173 24.943319
349.827290 27.825890
350.309406 31.347389
350.791523 35.351391
351.273640 39.945518
351.755757 45.384521
352.237873 51.737900
352.719990 58.422630
353.202107 64.913254
353.684223 72.138702
354.166340 76.259239
354.648457 76.715309
355.130574 74.168793
355.612690 67.873489
356.094807 58.311539
356.576924 47.782101
357.059041 38.000210
357.541157 28.980989
358.023274 21.584841
358.505391 16.315411
358.987508 12.333160
359.469624 9.601811
359.951741 7.833611
360.433858 6.524066
360.915975 5.434485
361.398091 4.532523
361.880208 3.747202
362.362325 3.118339
362.844442 2.580402
363.326558 2.096889
363.808675 1.687064
364.290792 1.393637
364.772909 1.240852
365.255025 1.141708
365.737142 0.960143
366.219259 0.672856
366.701375 0.472436
367.183492 0.525731
367.665609 0.589790
368.147726 0.436590
368.629842 0.074675
369.111959 0.230823
369.594076 0.228583
370.076193 0.003776
370.558309 0.115969
371.040426 0.047379
371.522543 0.068696
372.004660 0.185253
372.486776 0.283249
372.968893 0.305562
373.451010 0.196812
373.933127 0.017496
374.415243 0.126007
374.897360 0.220029
375.379477 0.378427
375.861594 0.757897
376.343710 1.188198
376.825827 1.404131
377.307944 1.325792
377.790061 1.167136
378.272177 1.031375
378.754294 0.932800
379.236411 0.929102
379.718527 1.034420
380.200644 1.252394
380.682761 1.633092
381.164878 2.171232
381.646994 2.654027
382.129111 2.944505
382.611228 3.165556
383.093345 3.489460
383.575461 3.943847
384.057578 4.472876
384.539695 5.027758
385.021812 5.623549
385.503928 6.341696
385.986045 7.241055
386.468162 8.207479
386.950279 9.011433
387.432395 9.787802
387.914512 11.014050
388.396629 12.930370
388.878746 15.404190
389.360862 18.097740
389.842979 20.788019
390.325096 24.095209
390.807212 28.609600
391.289329 33.610130
391.771446 38.757771
392.253563 43.876362
392.735679 47.737350
393.217796 48.851860
393.699913 46.785019
394.182030 43.255619
394.664146 36.775311
395.146263 30.285370
395.628380 25.124710
396.110497 21.368071
396.592613 18.855330
397.074730 17.513250
397.556847 17.247810
398.038964 17.531099
398.521080 18.592550
399.003197 19.950661
399.485314 22.167299
399.967431 24.382891
400.449547 25.801901
400.931664 26.135731
401.413781 25.437040
401.895898 23.691641
402.378014 20.510820
402.860131 17.306499
403.342248 13.721530
403.824364 10.410430
404.306481 7.648947
404.788598 5.453547
405.270715 3.753810
405.752831 2.539538
406.234948 1.770413
406.717065 1.206880
407.199182 1.051974
407.681298 0.820010
408.163415 0.241802
408.645532 0.400063
409.127649 0.747267
409.609765 0.663955
410.091882 0.427327
410.573999 0.487821
411.056116 0.929867
411.538232 1.215523
412.020349 1.156074
412.502466 0.999591
412.984583 0.861043
413.466699 0.749125
413.948816 0.646080
414.430933 0.551534
414.913050 0.457971
415.395166 0.310390
415.877283 0.046000
416.359400 0.116630
416.841516 0.060992
417.323633 0.379827
417.805750 0.571996
418.287867 0.549602
418.769983 0.431132
419.252100 0.305392
419.734217 0.175029
420.216334 0.063560
420.698450 0.028784
421.180567 0.087458
421.662684 0.062354
422.144801 0.050473
422.626917 0.083923
423.109034 0.060027
423.591151 0.298749
424.073268 0.525369
424.555384 0.728181
425.037501 0.937360
425.519618 1.157908
426.001735 1.391079
426.483851 1.661845
426.965968 2.042840
427.448085 2.398565
427.930202 2.645159
428.412318 2.823683
428.894435 3.025418
429.376552 3.287766
429.858668 3.576436
430.340785 3.822461
430.822902 3.941126
431.305019 4.249310
431.787135 4.860371
432.269252 5.581572
432.751369 6.314035
433.233486 7.027630
433.715602 7.680393
434.197719 8.203896
434.679836 8.619099
435.161953 9.258329
435.644069 10.225400
436.126186 11.312160
436.608303 12.460340
437.090420 13.720540
437.572536 15.179880
438.054653 16.860010
438.536770 18.683189
439.018887 20.487970
439.501003 22.157249
439.983120 24.187719
440.465237 26.617670
440.947354 29.412930
441.429470 32.536339
441.911587 36.015690
442.393704 39.912109
442.875820 44.222210
443.357937 48.994110
443.840054 54.267590
444.322171 60.110001
444.804287 66.358170
445.286404 73.115143
445.768521 80.181557
446.250638 87.396019
446.732754 94.734596
447.214871 102.015900
447.696988 108.876900
448.179105 115.431000
448.661221 122.458900
449.143338 130.204895
449.625455 138.147598
450.107572 145.652206
450.589688 152.927994
451.071805 160.798599
451.553922 168.998001
452.036039 178.219894
452.518155 188.835297
453.000272 200.930405
453.482389 215.053207
453.964506 231.654602
454.446622 250.198502
454.928739 269.276794
455.410856 287.505188
455.892972 309.474213
456.375089 336.682587
456.857206 367.873596
457.339323 401.545013
457.821439 437.568115
458.303556 477.546295
458.785673 523.177795
459.267790 574.595825
459.749906 629.121277
460.232023 688.201721
460.714140 748.232178
461.196257 811.983215
461.678373 874.957581
462.160490 933.070129
462.642607 984.418579
463.124724 1024.390991
463.606840 1045.364990
464.088957 1046.650024
464.571074 1029.454956
465.053191 988.648499
465.535307 935.590881
466.017424 870.182922
466.499541 796.500183
466.981658 721.864380
467.463774 649.915283
467.945891 581.613220
468.428008 519.590820
468.910124 463.789215
469.392241 413.924713
469.874358 370.588409
470.356475 332.448486
470.838591 299.538696
471.320708 271.783295
471.802825 247.277695
472.284942 224.790604
472.767058 204.325500
473.249175 186.397507
473.731292 171.285202
474.213409 158.033096
474.695525 146.412994
475.177642 136.130402
475.659759 126.832901
476.141876 118.788101
476.623992 111.404297
477.106109 104.157204
477.588226 97.261833
478.070343 91.289612
478.552459 86.567032
479.034576 82.527443
479.516693 78.436058
479.998810 74.228600
480.480926 70.227867
480.963043 66.406990
481.445160 62.850681
481.927276 59.734669
482.409393 56.967590
482.891510 54.240650
483.373627 51.331631
483.855743 48.387901
484.337860 45.922039
484.819977 44.261021
485.302094 42.651520
485.784210 41.054932
486.266327 39.493858
486.748444 37.993881
487.230561 36.548271
487.712677 35.126759
488.194794 33.662170
488.676911 32.167999
489.159028 30.873020
489.641144 29.917240
490.123261 28.937071
490.605378 27.759439
491.087495 26.522961
491.569611 25.378019
492.051728 24.366461
492.533845 23.464899
493.015962 22.698290
493.498078 22.046511
493.980195 21.326700
494.462312 20.477440
494.944428 19.625469
495.426545 18.875160
495.908662 18.214081
496.390779 17.626129
496.872895 17.167660
497.355012 16.719940
497.837129 16.141529
498.319246 15.479230
498.801362 14.935960
499.283479 14.619740
499.765596 14.379870
500.247713 13.948960
500.729829 13.245830
501.211946 12.650830
501.694063 12.297850
502.176180 11.975610
502.658296 11.478610
503.140413 10.866470
503.622530 10.380700
504.104647 10.192940
504.586763 10.192360
505.068880 9.952879
505.550997 9.204086
506.033114 8.615432
506.515230 8.332659
506.997347 8.136128
507.479464 7.833997
507.961580 7.436189
508.443697 7.112849
508.925814 7.020905
509.407931 7.125281
509.890047 7.251464
510.372164 7.502808
510.854281 7.576751
511.336398 7.194579
511.818514 6.663910
512.300631 6.283600
512.782748 6.111887
513.264865 6.001052
513.746981 5.813887
514.229098 5.591533
514.711215 5.506069
515.193332 5.631012
515.675448 5.715080
516.157565 5.495527
516.639682 5.062739
517.121799 4.860404
517.603915 5.165665
518.086032 5.403088
518.568149 5.278431
519.050266 4.924482
519.532382 4.527967
520.014499 4.142685
520.496616 3.823792
520.978732 3.652743
521.460849 3.664541
521.942966 3.610519
522.425083 3.410255
522.907199 3.239267
523.389316 3.176192
523.871433 3.181769
524.353550 3.195398
524.835666 3.192245
525.317783 3.180978
525.799900 3.143812
526.282017 3.037663
526.764133 3.133844
527.246250 3.778811
527.728367 4.275867
528.210484 4.094320
528.692600 3.521232
529.174717 3.241858
529.656834 3.650122
530.138951 4.318233
530.621067 4.688685
531.103184 4.776053
531.585301 4.850595
532.067418 5.033881
532.549534 5.163713
533.031651 5.004938
533.513768 4.581316
533.995884 4.115465
534.478001 3.558041
534.960118 3.052978
535.442235 2.753181
535.924351 2.608551
536.406468 2.412726
536.888585 2.056941
537.370702 1.659320
537.852818 1.487860
538.334935 1.770398
538.817052 1.814158
539.299169 1.416381
539.781285 0.981723
540.263402 0.686338
540.745519 0.554157
541.227636 0.589749
541.709752 0.819728
542.191869 1.141682
542.673986 1.269517
543.156103 1.132016
543.638219 1.030008
544.120336 1.089506
544.602453 1.147212
545.084570 1.065220
545.566686 0.869047
546.048803 0.725795
546.530920 0.771205
547.013036 0.898094
547.495153 0.966524
547.977270 0.975375
548.459387 0.845440
548.941503 0.462918
549.423620 0.020947
549.905737 0.075792
550.387854 0.234679
550.869970 0.436715
551.352087 0.394752
551.834204 0.239400
552.316321 0.027982
552.798437 0.208818
553.280554 0.404013
553.762671 0.518929
554.244788 0.568176
554.726904 0.597129
555.209021 0.618058
555.691138 0.591455
556.173255 0.474057
556.655371 0.350399
557.137488 0.267916
557.619605 0.230628
558.101722 0.220783
558.583838 0.227196
559.065955 0.257650
559.548072 0.353621
560.030188 0.539020
560.512305 0.655199
560.994422 0.615114
561.476539 0.528041
561.958655 0.522330
562.440772 0.588915
562.922889 0.592279
563.405006 0.392634
563.887122 0.167407
564.369239 0.134941
564.851356 0.263904
565.333473 0.367816
565.815589 0.363914
566.297706 0.285449
566.779823 0.190067
567.261940 0.032261
567.744056 0.027843
568.226173 0.087814
568.708290 0.219873
569.190407 0.302602
569.672523 0.333847
570.154640 0.326693
570.636757 0.287708
571.118874 0.203712
571.600990 0.015093
572.083107 0.350302
572.565224 0.556118
573.047340 0.411176
573.529457 0.244029
574.011574 0.235757
574.493691 0.348701
574.975807 0.465057
575.457924 0.556949
575.940041 0.600044
576.422158 0.531023
576.904274 0.374867
577.386391 0.272217
577.868508 0.267010
578.350625 0.314878
578.832741 0.367126
579.314858 0.429852
579.796975 0.525978
580.279092 0.698495
580.761208 0.847357
581.243325 0.916617
581.725442 0.931664
582.207559 0.914894
582.689675 0.881224
583.171792 0.890173
583.653909 1.049269
584.136026 1.401479
584.618142 1.601388
585.100259 1.577281
585.582376 1.478601
586.064492 1.238399
586.546609 0.999269
587.028726 0.989323
587.510843 1.290164
587.992959 1.603225
588.475076 1.590717
588.957193 1.344695
589.439310 1.231000
589.921426 1.303356
590.403543 1.442288
590.885660 1.623244
591.367777 1.797852
591.849893 1.798625
592.332010 1.491220
592.814127 1.239921
593.296244 1.168594
593.778360 1.206800
594.260477 1.306873
594.742594 1.444981
595.224711 1.577556
595.706827 1.676284
596.188944 1.732334
596.671061 1.684966
597.153178 1.420579
597.635294 1.251361
598.117411 1.282134
598.599528 1.360664
599.081644 1.380987
599.563761 1.340085
600.045878 1.291280
600.527995 1.271786
601.010111 1.263565
601.492228 1.217822
601.974345 1.133848
602.456462 1.096522
602.938578 1.150342
603.420695 1.242921
603.902812 1.297508
604.384929 1.312486
604.867045 1.349415
605.349162 1.465022
605.831279 1.560172
606.313396 1.560772
606.795512 1.493173
607.277629 1.416110
607.759746 1.351335
608.241863 1.293773
608.723979 1.222363
609.206096 1.118523
609.688213 1.099111
610.170330 1.235295
610.652446 1.369572
611.134563 1.495233
611.616680 1.576414
612.098796 1.549644
612.580913 1.390719
613.063030 1.196582
613.545147 0.997696
614.027263 0.844990
614.509380 0.956894
614.991497 1.401099
615.473614 1.732200
615.955730 1.610709
616.437847 1.174088
616.919964 0.907723
617.402081 0.840815
617.884197 0.845195
618.366314 0.971800
618.848431 1.121248
619.330548 1.193275
619.812664 1.187331
620.294781 1.175780
620.776898 1.220945
621.259015 1.100626
621.741131 1.190802
622.223248 0.854928
622.705365 0.567492
623.187482 0.320704
623.669598 0.190127
624.151715 0.330849
624.633832 0.634957
625.115948 0.782359
625.598065 0.546794
626.080182 0.226121
626.562299 0.151492
627.044415 0.257935
627.526532 0.316530
628.008649 0.272806
628.490766 0.179170
628.972882 0.059315
629.454999 0.079902
629.937116 0.035857
630.419233 0.405555
630.901349 0.702002
631.383466 0.607457
631.865583 0.385499
632.347700 0.321165
632.829816 0.444796
633.311933 0.589495
633.794050 0.602098
634.276167 0.522216
634.758283 0.546866
635.240400 0.738625
635.722517 0.777724
636.204634 0.396676
636.686750 0.026701
637.168867 0.046662
637.650984 0.315221
638.133100 0.590112
638.615217 0.600154
639.097334 0.490991
639.579451 0.299618
640.061567 0.090488
640.543684 0.035187
641.025801 0.195227
641.507918 0.446846
641.990034 0.632181
642.472151 0.749612
642.954268 0.813675
643.436385 0.790082
643.918501 0.749999
644.400618 0.674393
644.882735 0.608501
645.364852 0.611812
645.846968 0.692061
646.329085 0.783686
646.811202 0.862642
647.293319 0.907184
647.775435 0.830143
648.257552 0.623867
648.739669 0.461408
649.221786 0.426522
649.703902 0.468551
650.186019 0.501286
650.668136 0.519547
651.150252 0.553073
651.632369 0.658211
652.114486 0.726512
652.596603 0.643271
653.078719 0.489209
653.560836 0.432803
654.042953 0.533004
654.525070 0.668337
655.007186 0.655708
655.489303 0.487392
655.971420 0.390555
656.453537 0.406699
656.935653 0.413849
657.417770 0.307614
657.899887 0.182376
658.382004 0.163162
658.864120 0.276753
659.346237 0.385404
659.828354 0.427335
660.310471 0.432290
660.792587 0.430681
661.274704 0.424478
661.756821 0.409443
662.238938 0.383575
662.721054 0.345629
663.203171 0.291245
663.685288 0.212131
664.167404 0.141565
664.649521 0.046739
665.131638 0.003799
665.613755 0.048920
666.095871 0.146288
666.577988 0.207726
667.060105 0.210183
667.542222 0.185527
668.024338 0.155711
668.506455 0.121555
668.988572 0.069131
669.470689 0.003497
669.952805 0.017282
670.434922 0.086830
670.917039 0.251513
671.399156 0.351964
671.881272 0.358691
672.363389 0.371689
672.845506 0.320220
673.327623 0.347236
673.809739 0.620275
674.291856 1.003371
674.773973 1.256289
675.256090 1.285854
675.738206 1.221548
676.220323 1.199632
676.702440 1.220495
677.184556 1.300501
677.666673 1.454248
678.148790 1.619060
678.630907 1.763108
679.113023 1.899357
679.595140 2.061314
680.077257 2.267655
680.559374 2.417269
681.041490 2.454746
681.523607 2.451972
682.005724 2.435519
682.487841 2.436636
682.969957 2.511451
683.452074 2.681588
683.934191 2.897767
684.416308 3.108699
684.898424 3.321833
685.380541 3.469165
685.862658 3.455224
686.344775 3.537272
686.826891 3.881063
687.309008 4.344965
687.791125 4.798862
688.273242 5.232877
688.755358 5.674285
689.237475 6.080914
689.719592 6.540844
690.201708 7.212722
690.683825 8.028363
691.165942 8.720074
691.648059 9.173080
692.130175 9.552978
692.612292 10.128400
693.094409 10.920800
693.576526 11.725470
694.058642 12.770740
694.540759 13.480990
695.022876 13.617970
695.504993 13.432050
695.987109 13.171530
696.469226 12.889050
696.951343 12.434180
697.433460 11.661730
697.915576 10.710960
698.397693 9.692180
698.879810 8.649110
699.361927 7.684363
699.844043 6.837797
700.326160 6.080537
700.808277 5.377433
701.290394 4.717433
701.772510 4.150660
702.254627 3.707130
702.736744 3.344074
703.218860 3.125144
703.700977 2.947082
704.183094 2.667624
704.665211 2.304675
705.147327 2.019365
705.629444 1.988014
706.111561 2.049641
706.593678 1.920197
707.075794 1.633970
707.557911 1.411525
708.040028 1.328162
708.522145 1.315482
709.004261 1.344563
709.486378 1.421216
709.968495 1.399946
710.450612 1.134318
710.932728 0.967544
711.414845 1.021301
711.896962 1.149660
712.379079 1.267399
712.861195 1.340416
713.343312 1.305756
713.825429 1.071756
714.307546 0.801912
714.789662 0.802671
715.271779 1.026897
715.753896 1.120371
716.236012 0.991471
716.718129 0.826199
717.200246 0.788728
717.682363 0.849984
718.164479 0.815296
718.646596 0.576630
719.128713 0.401833
719.610830 0.345116
720.092946 0.336252
720.575063 0.346627
721.057180 0.359209
721.539297 0.345036
722.021413 0.285476
722.503530 0.218157
722.985647 0.181294
723.467764 0.180674
723.949880 0.270065
724.431997 0.478508
724.914114 0.614918
725.396231 0.524800
725.878347 0.305043
726.360464 0.238585
726.842581 0.446097
727.324698 0.522200
727.806814 0.316730
728.288931 0.106167
728.771048 0.027576
729.253164 0.058763
729.735281 0.178836
730.217398 0.374990
730.699515 0.518196
731.181631 0.396700
731.663748 0.105036
732.145865 0.017598
732.627982 0.157141
733.110098 0.334650
733.592215 0.502398
734.074332 0.615997
734.556449 0.591465
735.038565 0.390188
735.520682 0.241207
736.002799 0.169154
736.484916 0.119746
736.967032 0.080100
737.449149 0.049219
737.931266 0.012316
738.413383 0.023505
738.895499 0.006489
739.377616 0.141398
739.859733 0.335697
740.341850 0.387427
740.823966 0.304956
741.306083 0.214186
741.788200 0.141037
742.270316 0.092502
742.752433 0.078924
743.234550 0.098275
743.716667 0.120609
744.198783 0.164279
744.680900 0.185304
745.163017 0.149444
745.645134 0.112828
746.127250 0.131787
746.609367 0.188259
747.091484 0.218975
747.573601 0.189154
748.055717 0.138660
748.537834 0.135676
749.019951 0.155182
749.502068 0.068563
749.984184 0.147383
750.466301 0.289479
750.948418 0.225819
751.430535 0.020105
751.912651 0.188853
752.394768 0.501231
752.876885 0.567560
753.359002 0.105504
753.841118 0.271446
754.323235 0.205755
754.805352 0.055260
755.287468 0.138805
755.769585 0.039698
756.251702 0.231888
756.733819 0.226881
757.215935 0.128388
757.698052 0.130462
758.180169 0.212062
758.662286 0.207954
759.144402 0.051267
759.626519 0.114239
760.108636 0.101519
760.590753 0.090265
761.072869 0.139015
761.554986 0.087614
762.037103 0.262313
762.519220 0.318839
763.001336 0.323203
763.483453 0.334701
763.965570 0.340505
764.447687 0.265697
764.929803 0.001355
765.411920 0.212439
765.894037 0.081023
766.376154 0.221266
766.858270 0.369386
767.340387 0.330470
767.822504 0.244321
768.304620 0.191658
768.786737 0.185194
769.268854 0.286763
769.750971 0.576604
770.233087 0.665206
770.715204 0.341609
771.197321 0.096762
771.679438 0.227795
772.161554 0.530034
772.643671 0.738454
773.125788 0.818300
773.607905 0.862485
774.090021 0.943441
774.572138 0.968594
775.054255 0.796801
775.536372 0.526330
776.018488 0.348645
776.500605 0.321501
776.982722 0.391302
777.464839 0.521557
777.946955 0.694405
778.429072 0.815801
778.911189 0.878293
779.393306 0.926181
779.875422 0.935832
780.357539 0.985783
780.839656 1.178219
781.321772 1.481573
781.803889 1.725199
782.286006 1.969141
782.768123 2.056735
783.250239 1.756688
783.732356 1.444220
784.214473 1.453655
784.696590 1.723573
785.178706 2.021855
785.660823 2.246619
786.142940 2.437890
786.625057 2.623699
787.107173 2.817743
787.589290 3.101282
788.071407 3.482677
788.553524 3.790296
789.035640 3.924235
789.517757 3.991969
789.999874 4.153919
790.481991 4.422471
790.964107 4.721650
791.446224 5.046293
791.928341 5.407200
792.410458 5.882105
792.892574 6.341094
793.374691 6.638571
793.856808 6.794333
794.338924 6.991935
794.821041 7.402741
795.303158 7.765589
795.785275 7.780708
796.267391 7.565776
796.749508 7.373492
797.231625 7.242443
797.713742 7.092085
798.195858 6.858286
798.677975 6.621421
799.160092 6.607076
799.642209 6.895074
800.124325 7.077295
800.606442 7.130126
801.088559 7.100902
801.570676 6.799631
802.052792 6.535521
802.534909 6.786996
803.017026 7.630605
803.499143 8.307478
803.981259 8.610785
804.463376 8.675287
804.945493 8.472815
805.427610 8.135600
805.909726 7.858347
806.391843 7.666895
806.873960 7.433608
807.356076 7.055208
807.838193 6.567257
808.320310 6.048016
808.802427 5.512198
809.284543 5.104980
809.766660 4.872032
810.248777 4.592234
810.730894 4.066167
811.213010 3.413356
811.695127 2.999784
812.177244 3.011097
812.659361 2.973678
813.141477 2.842575
813.623594 2.668034
814.105711 2.459522
814.587828 2.239035
815.069944 2.011123
815.552061 1.773353
816.034178 1.572796
816.516295 1.454223
816.998411 1.386071
817.480528 1.308259
817.962645 1.251503
818.444762 1.356735
818.926878 1.639293
819.408995 1.828370
819.891112 1.656260
820.373228 1.230630
820.855345 0.906573
821.337462 0.658511
821.819579 0.646724
822.301695 1.048226
822.783812 1.419867
823.265929 1.426719
823.748046 1.249806
824.230162 1.220385
824.712279 1.401405
825.194396 1.490595
825.676513 1.360806
826.158629 1.195031
826.640746 1.068966
827.122863 0.987492
827.604980 0.957994
828.087096 0.974556
828.569213 0.999850
829.051330 1.012203
829.533447 1.008490
830.015563 0.960020
830.497680 0.884110
830.979797 0.899673
831.461914 1.034562
831.944030 1.134398
832.426147 1.072186
832.908264 0.916089
833.390380 0.878178
833.872497 1.019993
834.354614 1.117948
834.836731 1.120058
835.318847 1.142591
835.800964 1.310727
836.283081 1.480027
836.765198 1.429112
837.247314 1.133210
837.729431 0.919224
838.211548 0.933466
838.693665 1.017652
839.175781 1.135260
839.657898 1.228094
840.140015 1.205168
840.622132 1.069444
841.104248 0.883319
841.586365 0.657162
842.068482 0.510330
842.550599 0.763715
843.032715 1.330012
843.514832 1.594324
843.996949 1.473738
844.479066 1.227239
844.961182 0.948439
845.443299 0.721381
845.925416 0.731630
846.407532 1.069767
846.889649 1.180398
847.371766 0.821678
847.853883 0.556822
848.335999 0.521554
848.818116 0.616387
849.300233 0.836864
849.782350 1.125342
850.264466 1.241525
850.746583 1.008012
851.228700 0.749995
851.710817 0.623923
852.192933 0.593770
852.675050 0.645613
853.157167 0.753210
853.639284 0.879041
854.121400 1.005098
854.603517 1.067101
855.085634 0.901255
855.567751 0.588467
856.049867 0.597217
856.531984 0.946087
857.014101 1.066640
857.496218 0.722032
857.978334 0.286752
858.460451 0.155885
858.942568 0.305938
859.424684 0.459961
859.906801 0.684030
860.388918 0.796624
860.871035 0.692021
861.353151 0.570845
861.835268 0.531673
862.317385 0.550487
862.799502 0.590999
863.281618 0.659019
863.763735 0.670802
864.245852 0.531039
864.727969 0.378843
865.210085 0.351174
865.692202 0.380227
866.174319 0.324565
866.656436 0.169312
867.138552 0.040630
867.620669 0.046007
868.102786 0.115946
868.584903 0.124537
869.067019 0.077529
869.549136 0.024416
870.031253 0.188751
870.513370 0.204537
870.995486 0.097426
871.477603 0.510294
871.959720 0.603947
872.441836 0.309602
872.923953 0.064270
873.406070 0.182411
873.888187 0.301284
874.370303 0.128420
874.852420 0.093233
875.334537 0.142574
875.816654 0.046867
876.298770 0.002395
876.780887 0.066102
877.263004 0.134871
877.745121 0.183848
878.227237 0.198090
878.709354 0.105354
879.191471 0.021646
879.673588 0.008596
880.155704 0.257480
880.637821 0.482100
881.119938 0.377268
881.602055 0.133839
882.084171 0.135179
882.566288 0.326834
883.048405 0.459841
883.530522 0.478608
884.012638 0.426661
884.494755 0.334563
884.976872 0.246951
885.458988 0.339709
885.941105 0.691934
886.423222 0.744854
886.905339 0.294335
887.387455 0.079511
887.869572 0.062701
888.351689 0.174533
888.833806 0.373877
889.315922 0.535017
889.798039 0.658132
890.280156 0.747522
890.762273 0.796240
891.244389 0.817573
891.726506 0.803916
892.208623 0.721878
892.690740 0.599182
893.172856 0.517939
893.654973 0.513770
894.137090 0.528786
894.619207 0.531908
895.101323 0.527404
895.583440 0.509249
896.065557 0.489434
896.547674 0.510918
897.029790 0.579677
897.511907 0.624994
897.994024 0.574772
898.476140 0.458709
898.958257 0.305571
899.440374 0.132270
899.922491 0.207116
900.404607 0.607460
900.886724 0.912104
901.368841 0.828134
901.850958 0.536184
902.333074 0.429006
902.815191 0.550070
903.297308 0.636385
903.779425 0.657062
904.261541 0.696977
904.743658 0.824741
905.225775 0.945916
905.707892 0.961343
906.190008 0.889143
906.672125 0.832247
907.154242 0.824587
907.636359 0.799204
908.118475 0.656650
908.600592 0.572531
909.082709 0.701235
909.564826 0.961636
910.046942 1.230055
910.529059 1.467994
911.011176 1.655667
911.493292 1.804539
911.975409 1.874998
912.457526 1.821539
912.939643 1.662787
913.421759 1.453055
913.903876 1.250044
914.385993 1.152699
914.868110 1.227774
915.350226 1.360937
915.832343 1.329779
916.314460 1.166276
916.796577 1.147372
917.278693 1.289362
917.760810 1.423611
918.242927 1.504237
918.725044 1.505453
919.207160 1.366232
919.689277 1.098262
920.171394 0.978887
920.653511 1.080606
921.135627 1.203290
921.617744 1.445751
922.099861 1.554840
922.581978 1.254551
923.064094 0.803319
923.546211 0.614263
924.028328 0.708684
924.510444 0.759593
924.992561 0.713458
925.474678 0.653401
925.956795 0.612837
926.438911 0.583053
926.921028 0.539649
927.403145 0.472100
927.885262 0.375546
928.367378 0.237768
928.849495 0.206190
929.331612 0.509265
929.813729 0.855801
930.295845 0.908478
930.777962 0.744059
931.260079 0.531018
931.742196 0.329173
932.224312 0.201563
932.706429 0.177868
933.188546 0.198916
933.670663 0.224649
934.152779 0.248313
934.634896 0.201934
935.117013 0.084660
935.599130 0.042840
936.081246 0.149976
936.563363 0.323971
937.045480 0.461240
937.527596 0.557836
938.009713 0.625923
938.491830 0.680497
938.973947 0.639399
939.456063 0.451128
939.938180 0.230592
940.420297 0.001357
940.902414 0.180551
941.384530 0.105864
941.866647 0.392899
942.348764 0.624864
942.830881 0.315568
943.312997 0.097057
943.795114 0.232324
944.277231 0.452491
944.759348 0.514715
945.241464 0.440315
945.723581 0.393731
946.205698 0.459062
946.687815 0.455091
947.169931 0.135144
947.652048 0.110240
948.134165 0.148709
948.616282 0.616617
949.098398 0.796989
949.580515 0.613750
950.062632 0.386453
950.544748 0.246642
951.026865 0.184725
951.508982 0.215905
951.991099 0.306752
952.473215 0.420866
952.955332 0.539488
953.437449 0.627632
953.919566 0.670906
954.401682 0.679288
954.883799 0.625744
955.365916 0.529684
955.848033 0.451362
956.330149 0.396585
956.812266 0.405605
957.294383 0.485138
957.776500 0.502187
958.258616 0.351851
958.740733 0.160701
959.222850 0.213928
959.704967 0.536046
960.187083 0.686569
960.669200 0.622355
961.151317 0.566571
961.633434 0.601939
962.115550 0.618422
962.597667 0.485822
963.079784 0.259848
963.561900 0.193759
964.044017 0.430285
964.526134 0.518332
965.008251 0.328554
965.490367 0.156636
965.972484 0.058156
966.454601 0.056952
966.936718 0.239779
967.418834 0.576485
967.900951 0.790456
968.383068 0.908935
968.865185 0.808337
969.347301 0.140487
969.829418 0.429858
970.311535 0.363510
970.793652 0.037467
971.275768 0.298748
971.757885 0.332574
972.240002 0.298754
972.722119 0.206760
973.204235 0.147120
973.686352 0.215537
974.168469 0.320585
974.650586 0.388769
975.132702 0.393510
975.614819 0.256936
976.096936 0.040860
976.579052 0.251719
977.061169 0.080106
977.543286 0.243846
978.025403 0.410881
978.507519 0.470803
978.989636 0.586884
979.471753 0.747178
979.953870 0.700978
980.435986 0.299482
980.918103 0.136813
981.400220 0.065167
981.882337 0.347182
982.364453 0.436248
982.846570 0.231377
983.328687 0.007258
983.810804 0.169556
984.292920 0.211509
984.775037 0.034974
985.257154 0.254136
985.739271 0.415945
986.221387 0.444381
986.703504 0.457619
987.185621 0.455817
987.667737 0.453817
988.149854 0.472466
988.631971 0.433958
989.114088 0.227789
989.596204 0.074000
990.078321 0.146326
990.560438 0.100922
991.042555 0.320620
991.524671 0.519459
992.006788 0.668997
992.488905 0.789020
992.971022 0.822771
993.453138 0.640853
993.935255 0.275644
994.417372 0.113222
994.899489 0.300560
995.381605 0.461700
995.863722 0.660021
996.345839 0.744554
996.827956 0.523595
997.310072 0.228121
997.792189 0.177834
998.274306 0.369289
998.756423 0.453137
999.238539 0.256478
999.720656 0.131758
1000.202773 0.214615
1000.684889 0.341891
1001.167006 0.434788
1001.649123 0.480334
1002.131240 0.464084
1002.613356 0.386807
1003.095473 0.293223
1003.577590 0.117704
1004.059707 0.035957
1004.541823 0.251267
1005.023940 0.520215
1005.506057 0.620614
1005.988174 0.572382
1006.470290 0.383180
1006.952407 0.075605
1007.434524 0.121637
1007.916641 0.025023
1008.398757 0.274288
1008.880874 0.427254
1009.362991 0.513855
1009.845108 0.605775
1010.327224 0.673074
1010.809341 0.564192
1011.291458 0.231013
1011.773575 0.063983
1012.255691 0.014436
1012.737808 0.176491
1013.219925 0.162524
1013.702041 0.040811
1014.184158 0.059636
1014.666275 0.228623
1015.148392 0.415580
1015.630508 0.555528
1016.112625 0.624285
1016.594742 0.540956
1017.076859 0.389846
1017.558975 0.412077
1018.041092 0.578759
1018.523209 0.788650
1019.005326 1.008565
1019.487442 1.072273
1019.969559 0.873535
1020.451676 0.615413
1020.933793 0.633273
1021.415909 0.863185
1021.898026 0.898759
1022.380143 0.748093
1022.862260 0.728467
1023.344376 0.911303
1023.826493 1.056950
1024.308610 1.014068
1024.790727 0.869056
1025.272843 0.763100
1025.754960 0.695523
1026.237077 0.643599
1026.719193 0.597168
1027.201310 0.662333
1027.683427 0.854540
1028.165544 1.053022
1028.647660 1.162062
1029.129777 1.235201
1029.611894 1.460610
1030.094011 1.411736
1030.576127 1.903651
1031.058244 1.384573
1031.540361 1.027079
1032.022478 1.018807
1032.504594 1.123299
1032.986711 1.185533
1033.468828 1.239730
1033.950945 1.372802
1034.433061 1.397388
1034.915178 1.403367
1035.397295 1.539691
1035.879412 1.442356
1036.361528 1.511582
1036.843645 1.641399
1037.325762 1.747404
1037.807879 1.867076
1038.289995 2.117592
1038.772112 2.179929
1039.254229 2.208647
1039.736345 2.461213
1040.218462 2.310255
1040.700579 2.516854
1041.182696 2.842160
1041.664812 3.193006
1042.146929 3.528644
1042.629046 3.740264
1043.111163 3.808171
1043.593279 3.821073
1044.075396 3.741753
1044.557513 3.662557
1045.039630 3.574858
1045.521746 3.521666
1046.003863 3.632889
1046.485980 3.785531
1046.968097 3.674999
1047.450213 3.221959
1047.932330 2.793453
1048.414447 2.380619
1048.896564 2.086513
1049.378680 1.950324
1049.860797 1.928737
1050.342914 2.087723
1050.825031 2.306174
1051.307147 2.310839
1051.789264 2.030512
1052.271381 1.905253
1052.753497 2.193570
1053.235614 2.423467
1053.717731 2.424316
1054.199848 2.334449
1054.681964 2.217543
1055.164081 2.101978
1055.646198 2.019822
1056.128315 1.986568
1056.610431 2.008850
1057.092548 2.097258
1057.574665 2.203768
1058.056782 2.313704
1058.538898 2.442800
1059.021015 2.604439
1059.503132 2.790635
1059.985249 3.004714
1060.467365 3.246738
1060.949482 3.427727
1061.431599 3.427461
1061.913716 3.480985
1062.395832 3.690811
1062.877949 3.988473
1063.360066 4.404553
1063.842183 4.835052
1064.324299 5.140742
1064.806416 5.289741
1065.288533 5.249827
1065.770649 4.940023
1066.252766 4.579089
1066.734883 4.162988
1067.217000 3.816088
1067.699116 3.728304
1068.181233 3.727478
1068.663350 3.460608
1069.145467 2.929844
1069.627583 2.626697
1070.109700 2.921182
1070.591817 3.203153
1071.073934 3.193485
1071.556050 3.055655
1072.038167 2.846438
1072.520284 2.637124
1073.002401 2.514179
1073.484517 2.477808
1073.966634 2.451186
1074.448751 2.425563
1074.930868 2.361197
1075.412984 2.089081
1075.895101 1.928978
1076.377218 2.242095
1076.859335 2.730538
1077.341451 2.983719
1077.823568 2.993871
1078.305685 3.013202
1078.787801 3.144977
1079.269918 3.239181
1079.752035 3.138848
1080.234152 3.071489
1080.716268 3.220726
1081.198385 3.469200
1081.680502 3.755095
1082.162619 3.999071
1082.644735 4.011534
1083.126852 3.704249
1083.608969 3.315689
1084.091086 2.849773
1084.573202 2.450232
1085.055319 2.236220
1085.537436 2.108291
1086.019553 1.993595
1086.501669 1.862991
1086.983786 1.666982
1087.465903 1.383838
1087.948020 1.138241
1088.430136 1.006477
1088.912253 0.895774
1089.394370 0.731790
1089.876487 0.589448
1090.358603 0.573545
1090.840720 0.623902
1091.322837 0.587982
1091.804953 0.434992
1092.287070 0.362176
1092.769187 0.541401
1093.251304 0.683343
1093.733420 0.631353
1094.215537 0.530274
1094.697654 0.513675
1095.179771 0.518271
1095.661887 0.382126
1096.144004 0.106634
1096.626121 0.020450
1097.108238 0.252932
1097.590354 0.432275
1098.072471 0.207265
1098.554588 0.000491
1099.036705 0.146136
1099.518821 0.426220
1100.000938 0.571080
1100.483055 0.556774
1100.965172 0.446185
1101.447288 0.188153
1101.929405 0.019217
1102.411522 0.070388
1102.893639 0.124469
1103.375755 0.401533
1103.857872 0.607133
1104.339989 0.334220
1104.822105 0.276302
1105.304222 0.689932
1105.786339 0.814262
1106.268456 0.811934
1106.750572 0.619784
1107.232689 0.426565
1107.714806 0.252490
1108.196923 0.139600
1108.679039 0.178637
1109.161156 0.287519
1109.643273 0.247145
1110.125390 0.317780
1110.607506 0.443323
1111.089623 0.344579
1111.571740 0.608459
1112.053857 0.553710
1112.535973 0.383207
1113.018090 0.118943
1113.500207 0.141455
1113.982324 0.240786
1114.464440 0.175223
1114.946557 0.099225
1115.428674 0.008500
1115.910791 0.086356
1116.392907 0.197208
1116.875024 0.294542
1117.357141 0.357129
1117.839257 0.410594
1118.321374 0.491547
1118.803491 0.589814
1119.285608 0.650749
1119.767724 0.714849
1120.249841 0.624626
1120.731958 0.242348
1121.214075 0.005172
1121.696191 0.066578
1122.178308 0.202694
1122.660425 0.169219
1123.142542 0.073197
1123.624658 0.220495
1124.106775 0.668613
1124.588892 0.894996
1125.071009 0.814853
1125.553125 0.820355
1126.035242 1.034791
1126.517359 1.182683
1126.999476 1.065430
1127.481592 0.877390
1127.963709 0.964399
1128.445826 0.779591
1128.927943 0.648840
1129.410059 0.673535
1129.892176 0.429721
1130.374293 0.592937
1130.856409 0.758124
1131.338526 0.751905
1131.820643 0.705211
1132.302760 0.751994
1132.784876 0.877431
1133.266993 1.048460
1133.749110 1.259069
1134.231227 1.377254
1134.713343 1.396472
1135.195460 1.268778
1135.677577 0.983037
1136.159694 0.779711
1136.641810 0.837892
1137.123927 1.035884
1137.606044 1.195439
1138.088161 1.315548
1138.570277 1.372075
1139.052394 1.383577
1139.534511 1.453250
1140.016628 1.582268
1140.498744 1.638775
1140.980861 1.563175
1141.462978 1.498716
1141.945095 1.601565
1142.427211 1.806627
1142.909328 2.045268
1143.391445 2.279962
1143.873561 2.353596
1144.355678 2.347983
1144.837795 2.583585
1145.319912 3.112501
1145.802028 3.629193
1146.284145 3.947071
1146.766262 4.117655
1147.248379 4.037673
1147.730495 3.971178
1148.212612 4.272951
1148.694729 4.824903
1149.176846 5.420390
1149.658962 5.992819
1150.141079 6.385459
1150.623196 6.515975
1151.105313 6.727000
1151.587429 7.272532
1152.069546 7.928723
1152.551663 8.548147
1153.033780 9.186107
1153.515896 9.882415
1153.998013 10.643340
1154.480130 11.453240
1154.962247 12.316650
1155.444363 13.304020
1155.926480 14.571150
1156.408597 15.769530
1156.890713 16.607189
1157.372830 17.546009
1157.854947 19.168249
1158.337064 20.821819
1158.819180 21.762381
1159.301297 22.034870
1159.783414 22.063320
1160.265531 21.869881
1160.747647 21.474791
1161.229764 20.931980
1161.711881 20.079880
1162.193998 18.833481
1162.676114 17.378469
1163.158231 15.685270
1163.640348 13.922620
1164.122465 12.400210
1164.604581 11.112640
1165.086698 9.898764
1165.568815 8.750115
1166.050932 7.689224
1166.533048 6.692110
1167.015165 5.891717
1167.497282 5.386762
1167.979399 4.990065
1168.461515 4.505101
1168.943632 3.982496
1169.425749 3.580396
1169.907865 3.303665
1170.389982 3.053874
1170.872099 2.831132
1171.354216 2.570668
1171.836332 2.261319
1172.318449 1.979504
1172.800566 1.768311
1173.282683 1.559937
1173.764799 1.200814
1174.246916 0.804962
1174.729033 0.816828
1175.211150 0.577218
1175.693266 0.441169
1176.175383 0.539254
1176.657500 0.358716
1177.139617 0.597816
1177.621733 0.888979
1178.103850 0.987947
1178.585967 0.932550
1179.068084 0.601875
1179.550200 0.274958
1180.032317 0.445493
1180.514434 0.855907
1180.996551 1.039086
1181.478667 0.961065
1181.960784 0.782110
1182.442901 0.554448
1182.925017 0.402640
1183.407134 0.434029
1183.889251 0.521231
1184.371368 0.649249
1184.853484 0.739322
1185.335601 0.678582
1185.817718 0.557005
1186.299835 0.530529
1186.781951 0.604624
1187.264068 0.658616
1187.746185 0.698544
1188.228302 0.651970
1188.710418 0.429718
1189.192535 0.218931
1189.674652 0.003221
1190.156769 0.090386
1190.638885 0.155253
1191.121002 0.535876
1191.603119 0.571868
1192.085236 0.221021
1192.567352 0.106873
1193.049469 0.330254
1193.531586 0.465325
1194.013703 0.444686
1194.495819 0.397717
1194.977936 0.379775
1195.460053 0.350244
1195.942169 0.258860
1196.424286 0.241088
1196.906403 0.201043
1197.388520 0.148520
1197.870636 0.140862
1198.352753 0.083648
1198.834870 0.037433
1199.316987 0.019346
1199.799103 0.101587
1200.281220 0.324130
1200.763337 0.546767
1201.245454 0.609509
1201.727570 0.565671
1202.209687 0.485340
1202.691804 0.384698
1203.173921 0.271926
1203.656037 0.174501
1204.138154 0.204306
1204.620271 0.339292
1205.102388 0.314365
1205.584504 0.058409
1206.066621 0.329861
1206.548738 0.033853
1207.030855 0.330427
1207.512971 0.411180
1207.995088 0.330295
1208.477205 0.149165
1208.959321 0.046617
1209.441438 0.113850
1209.923555 0.033078
1210.405672 0.079813
1210.887788 0.255393
1211.369905 0.370177
1211.852022 0.417597
1212.334139 0.383936
1212.816255 0.193530
1213.298372 0.014536
1213.780489 0.155962
1214.262606 0.214710
1214.744722 0.128987
1215.226839 0.125772
1215.708956 0.244697
1216.191073 0.181613
1216.673189 0.183780
1217.155306 0.298854
1217.637423 0.406416
1218.119540 0.457352
1218.601656 0.447744
1219.083773 0.360416
1219.565890 0.244387
1220.048007 0.236403
1220.530123 0.305606
1221.012240 0.305043
1221.494357 0.244253
1221.976473 0.174258
1222.458590 0.114021
1222.940707 0.104120
1223.422824 0.156586
1223.904940 0.209560
1224.387057 0.200107
1224.869174 0.191057
1225.351291 0.251126
1225.833407 0.348374
1226.315524 0.465151
1226.797641 0.578038
1227.279758 0.677007
1227.761874 0.739938
1228.243991 0.678117
1228.726108 0.423474
1229.208225 0.282547
1229.690341 0.425597
1230.172458 0.599488
1230.654575 0.766983
1231.136692 0.881716
1231.618808 0.903911
1232.100925 0.862186
1232.583042 0.779804
1233.065159 0.667366
1233.547275 0.589932
1234.029392 0.537940
1234.511509 0.564070
1234.993625 0.699862
1235.475742 0.788106
1235.957859 0.780037
1236.439976 0.796938
1236.922092 0.923303
1237.404209 1.034676
1237.886326 0.951761
1238.368443 0.735790
1238.850559 0.577442
1239.332676 0.467661
1239.814793 0.371021
1240.296910 0.296355
1240.779026 0.317389
1241.261143 0.423596
1241.743260 0.450975
1242.225377 0.307568
1242.707493 0.190979
1243.189610 0.340317
1243.671727 0.522493
1244.153844 0.497294
1244.635960 0.595995
1245.118077 0.480672
1245.600194 0.601832
1246.082311 0.623096
1246.564427 0.517582
1247.046544 0.429740
1247.528661 0.342458
1248.010777 0.281574
1248.492894 0.335823
1248.975011 0.322368
1249.457128 0.058195
1249.939244 0.094637
1250.421361 0.133599
1250.903478 0.485215
1251.385595 0.535963
1251.867711 0.340470
1252.349828 0.261387
1252.831945 0.313857
1253.314062 0.255565
1253.796178 0.073599
1254.278295 0.058270
1254.760412 0.269466
1255.242529 0.439955
1255.724645 0.423453
1256.206762 0.541533
1256.688879 0.436953
1257.170996 0.540915
1257.653112 0.478468
1258.135229 0.345977
1258.617346 0.317898
1259.099463 0.351391
1259.581579 0.309683
1260.063696 0.208814
1260.545813 0.211135
1261.027929 0.383078
1261.510046 0.544901
1261.992163 0.684720
1262.474280 0.701818
1262.956396 0.441945
1263.438513 0.175028
1263.920630 0.048372
1264.402747 0.023351
1264.884863 0.054387
1265.366980 0.138698
1265.849097 0.280656
1266.331214 0.500973
1266.813330 0.654408
1267.295447 0.748892
1267.777564 0.714463
1268.259681 0.507281
1268.741797 0.331363
1269.223914 0.246234
1269.706031 0.214491
1270.188148 0.203014
1270.670264 0.217263
1271.152381 0.279063
1271.634498 0.367950
1272.116615 0.443506
1272.598731 0.504188
1273.080848 0.577251
1273.562965 0.632185
1274.045081 0.532006
1274.527198 0.264467
1275.009315 0.114509
1275.491432 0.293347
1275.973548 0.456179
1276.455665 0.404176
1276.937782 0.324764
1277.419899 0.305104
1277.902015 0.321878
1278.384132 0.403651
1278.866249 0.477445
1279.348366 0.377204
1279.830482 0.114201
1280.312599 0.026055
1280.794716 0.032442
1281.276833 0.042809
1281.758949 0.213153
1282.241066 0.337439
1282.723183 0.374251
1283.205300 0.396281
1283.687416 0.259806
1284.169533 0.262563
1284.651650 0.329939
1285.133767 0.344860
1285.615883 0.235509
1286.098000 0.000000
