PE IR       RAMAN       SPECTRUM    ASCII       PEDS        1.60        
  -1
RIBOSE.ASC
00/04/27
19:22:52.00
00/04/27
19:22:52.00

Ribose (4 cm-1, 256, medium, 400 mW)
200.000000
256









2000,4.07    
INGAAS
RAM_DPY2
QUARTZ

0.100000
1
4.000000
MEDIUM
SINGLE
RAMAN
MAGN 0

DOUBLE

COMBINED
1
0
0


1.000000
SINGLE BEAM


1
0
TRUE
39836
1
 0
NONE
NONE
15600
21.200000
8.170999
39835
TRUE
1 0 0 0 0 0 0 0 

15798.010000
9394.690000
400.000000




#HDR
-1
-1
#GR
CM-1
INT
0.00100000000000000000
0.0
3600.000000
-1.000000
3401
8
34.142947
0.009059
#DATA
3600.000000	0.015640  
3599.000000	0.015926  
3598.000000	0.013828  
3597.000000	0.012540  
3596.000000	0.010609  
3595.000000	0.009059  
3594.000000	0.011849  
3593.000000	0.016474  
3592.000000	0.016903  
3591.000000	0.015377  
3590.000000	0.018024  
3589.000000	0.021862  
3588.000000	0.021100  
3587.000000	0.020837  
3586.000000	0.027799  
3585.000000	0.035405  
3584.000000	0.036096  
3583.000000	0.036859  
3582.000000	0.043439  
3581.000000	0.044894  
3580.000000	0.034856  
3579.000000	0.027751  
3578.000000	0.032782  
3577.000000	0.036644  
3576.000000	0.031661  
3575.000000	0.031995  
3574.000000	0.042939  
3573.000000	0.047826  
3572.000000	0.042700  
3571.000000	0.045347  
3570.000000	0.056815  
3569.000000	0.055456  
3568.000000	0.038886  
3567.000000	0.028276  
3566.000000	0.027608  
3565.000000	0.024366  
3564.000000	0.026941  
3563.000000	0.051355  
3562.000000	0.078511  
3561.000000	0.076794  
3560.000000	0.055623  
3559.000000	0.046467  
3558.000000	0.049018  
3557.000000	0.044775  
3556.000000	0.040602  
3555.000000	0.050926  
3554.000000	0.063300  
3553.000000	0.062894  
3552.000000	0.062584  
3551.000000	0.073981  
3550.000000	0.080776  
3549.000000	0.071406  
3548.000000	0.063395  
3547.000000	0.070810  
3546.000000	0.082325  
3545.000000	0.090193  
3544.000000	0.104165  
3543.000000	0.122976  
3542.000000	0.128746  
3541.000000	0.118851  
3540.000000	0.111269  
3539.000000	0.112342  
3538.000000	0.109934  
3537.000000	0.099444  
3536.000000	0.091719  
3535.000000	0.093793  
3534.000000	0.101089  
3533.000000	0.109314  
3532.000000	0.120496  
3531.000000	0.135397  
3530.000000	0.145459  
3529.000000	0.140261  
3528.000000	0.125622  
3527.000000	0.121951  
3526.000000	0.134038  
3525.000000	0.141763  
3524.000000	0.135135  
3523.000000	0.133609  
3522.000000	0.149035  
3521.000000	0.163626  
3520.000000	0.166082  
3519.000000	0.172066  
3518.000000	0.187730  
3517.000000	0.195693  
3516.000000	0.194525  
3515.000000	0.205469  
3514.000000	0.227856  
3513.000000	0.238204  
3512.000000	0.238037  
3511.000000	0.249147  
3510.000000	0.264525  
3509.000000	0.262141  
3508.000000	0.256943  
3507.000000	0.277996  
3506.000000	0.309777  
3505.000000	0.318408  
3504.000000	0.314331  
3503.000000	0.327563  
3502.000000	0.348639  
3501.000000	0.352764  
3500.000000	0.351023  
3499.000000	0.364279  
3498.000000	0.381422  
3497.000000	0.386762  
3496.000000	0.392770  
3495.000000	0.409770  
3494.000000	0.420737  
3493.000000	0.415253  
3492.000000	0.411248  
3491.000000	0.421833  
3490.000000	0.433993  
3489.000000	0.436758  
3488.000000	0.440359  
3487.000000	0.455880  
3486.000000	0.478386  
3485.000000	0.498652  
3484.000000	0.515842  
3483.000000	0.533366  
3482.000000	0.551819  
3481.000000	0.568866  
3480.000000	0.581693  
3479.000000	0.590181  
3478.000000	0.597405  
3477.000000	0.607585  
3476.000000	0.622987  
3475.000000	0.645065  
3474.000000	0.673127  
3473.000000	0.705242  
3472.000000	0.743079  
3471.000000	0.789833  
3470.000000	0.836777  
3469.000000	0.868964  
3468.000000	0.892877  
3467.000000	0.933647  
3466.000000	0.993013  
3465.000000	1.044726  
3464.000000	1.084184  
3463.000000	1.137304  
3462.000000	1.206207  
3461.000000	1.259636  
3460.000000	1.290559  
3459.000000	1.326012  
3458.000000	1.371669  
3457.000000	1.406693  
3456.000000	1.433992  
3455.000000	1.473045  
3454.000000	1.509118  
3453.000000	1.516938  
3452.000000	1.518154  
3451.000000	1.547884  
3450.000000	1.588368  
3449.000000	1.601266  
3448.000000	1.596856  
3447.000000	1.609063  
3446.000000	1.633596  
3445.000000	1.646995  
3444.000000	1.653838  
3443.000000	1.669025  
3442.000000	1.685237  
3441.000000	1.694822  
3440.000000	1.711702  
3439.000000	1.744699  
3438.000000	1.779627  
3437.000000	1.807665  
3436.000000	1.839256  
3435.000000	1.879119  
3434.000000	1.916432  
3433.000000	1.947307  
3432.000000	1.981210  
3431.000000	2.019309  
3430.000000	2.048635  
3429.000000	2.061891  
3428.000000	2.068209  
3427.000000	2.079463  
3426.000000	2.094674  
3425.000000	2.102446  
3424.000000	2.098488  
3423.000000	2.094292  
3422.000000	2.100920  
3421.000000	2.112674  
3420.000000	2.121758  
3419.000000	2.132225  
3418.000000	2.142572  
3417.000000	2.136945  
3416.000000	2.117609  
3415.000000	2.113604  
3414.000000	2.131938  
3413.000000	2.139925  
3412.000000	2.122759  
3411.000000	2.111005  
3410.000000	2.124714  
3409.000000	2.142190  
3408.000000	2.147507  
3407.000000	2.155113  
3406.000000	2.169680  
3405.000000	2.175545  
3404.000000	2.176213  
3403.000000	2.191925  
3402.000000	2.215027  
3401.000000	2.220511  
3400.000000	2.216529  
3399.000000	2.230334  
3398.000000	2.256321  
3397.000000	2.270531  
3396.000000	2.281141  
3395.000000	2.310752  
3394.000000	2.350902  
3393.000000	2.380895  
3392.000000	2.408075  
3391.000000	2.445483  
3390.000000	2.480363  
3389.000000	2.500438  
3388.000000	2.521896  
3387.000000	2.557611  
3386.000000	2.592158  
3385.000000	2.614665  
3384.000000	2.642893  
3383.000000	2.691936  
3382.000000	2.750229  
3381.000000	2.801299  
3380.000000	2.843260  
3379.000000	2.877449  
3378.000000	2.901387  
3377.000000	2.919530  
3376.000000	2.943348  
3375.000000	2.975058  
3374.000000	3.001451  
3373.000000	3.008580  
3372.000000	3.000497  
3371.000000	2.997279  
3370.000000	3.011488  
3369.000000	3.032064  
3368.000000	3.043556  
3367.000000	3.047323  
3366.000000	3.050184  
3365.000000	3.043866  
3364.000000	3.022718  
3363.000000	2.999806  
3362.000000	2.986097  
3361.000000	2.970743  
3360.000000	2.947187  
3359.000000	2.926683  
3358.000000	2.908396  
3357.000000	2.870273  
3356.000000	2.811622  
3355.000000	2.759504  
3354.000000	2.719449  
3353.000000	2.666950  
3352.000000	2.600097  
3351.000000	2.546024  
3350.000000	2.507710  
3349.000000	2.459716  
3348.000000	2.400398  
3347.000000	2.351427  
3346.000000	2.308273  
3345.000000	2.248144  
3344.000000	2.178740  
3343.000000	2.122712  
3342.000000	2.070283  
3341.000000	2.001571  
3340.000000	1.932501  
3339.000000	1.887631  
3338.000000	1.853513  
3337.000000	1.804041  
3336.000000	1.744627  
3335.000000	1.692438  
3334.000000	1.643347  
3333.000000	1.590061  
3332.000000	1.546287  
3331.000000	1.524090  
3330.000000	1.511192  
3329.000000	1.487851  
3328.000000	1.449823  
3327.000000	1.403212  
3326.000000	1.354789  
3325.000000	1.312375  
3324.000000	1.283359  
3323.000000	1.266694  
3322.000000	1.253390  
3321.000000	1.235795  
3320.000000	1.214718  
3319.000000	1.197099  
3318.000000	1.186418  
3317.000000	1.178216  
3316.000000	1.168441  
3315.000000	1.160407  
3314.000000	1.152896  
3313.000000	1.133513  
3312.000000	1.100420  
3311.000000	1.074886  
3310.000000	1.070785  
3309.000000	1.072144  
3308.000000	1.062011  
3307.000000	1.048731  
3306.000000	1.038908  
3305.000000	1.017642  
3304.000000	0.981163  
3303.000000	0.953578  
3302.000000	0.947642  
3301.000000	0.944542  
3300.000000	0.931501  
3299.000000	0.920033  
3298.000000	0.914025  
3297.000000	0.902700  
3296.000000	0.892138  
3295.000000	0.899505  
3294.000000	0.914239  
3293.000000	0.910329  
3292.000000	0.892734  
3291.000000	0.885415  
3290.000000	0.883984  
3289.000000	0.868082  
3288.000000	0.847482  
3287.000000	0.846171  
3286.000000	0.857257  
3285.000000	0.857806  
3284.000000	0.849986  
3283.000000	0.848221  
3282.000000	0.848674  
3281.000000	0.844478  
3280.000000	0.845813  
3279.000000	0.857853  
3278.000000	0.865697  
3277.000000	0.862550  
3276.000000	0.863671  
3275.000000	0.874519  
3274.000000	0.876712  
3273.000000	0.859332  
3272.000000	0.838208  
3271.000000	0.832295  
3270.000000	0.841927  
3269.000000	0.858163  
3268.000000	0.875735  
3267.000000	0.891685  
3266.000000	0.900673  
3265.000000	0.899028  
3264.000000	0.891923  
3263.000000	0.892281  
3262.000000	0.905513  
3261.000000	0.921106  
3260.000000	0.928711  
3259.000000	0.935053  
3258.000000	0.948953  
3257.000000	0.963068  
3256.000000	0.970482  
3255.000000	0.981116  
3254.000000	0.998711  
3253.000000	1.005387  
3252.000000	0.992846  
3251.000000	0.980424  
3250.000000	0.980305  
3249.000000	0.980639  
3248.000000	0.982546  
3247.000000	1.007461  
3246.000000	1.049971  
3245.000000	1.073193  
3244.000000	1.067590  
3243.000000	1.063251  
3242.000000	1.073908  
3241.000000	1.082205  
3240.000000	1.085233  
3239.000000	1.100993  
3238.000000	1.126575  
3237.000000	1.140046  
3236.000000	1.142621  
3235.000000	1.151633  
3234.000000	1.164436  
3233.000000	1.171565  
3232.000000	1.187038  
3231.000000	1.221323  
3230.000000	1.250314  
3229.000000	1.251292  
3228.000000	1.242446  
3227.000000	1.251435  
3226.000000	1.272249  
3225.000000	1.284861  
3224.000000	1.290202  
3223.000000	1.299023  
3222.000000	1.308250  
3221.000000	1.309871  
3220.000000	1.307773  
3219.000000	1.312327  
3218.000000	1.326346  
3217.000000	1.343941  
3216.000000	1.357722  
3215.000000	1.364064  
3214.000000	1.362109  
3213.000000	1.350522  
3212.000000	1.331138  
3211.000000	1.313924  
3210.000000	1.310849  
3209.000000	1.321792  
3208.000000	1.335787  
3207.000000	1.344752  
3206.000000	1.347637  
3205.000000	1.344919  
3204.000000	1.340341  
3203.000000	1.340508  
3202.000000	1.341867  
3201.000000	1.330137  
3200.000000	1.306581  
3199.000000	1.293420  
3198.000000	1.297068  
3197.000000	1.294612  
3196.000000	1.276206  
3195.000000	1.263833  
3194.000000	1.266956  
3193.000000	1.263880  
3192.000000	1.246404  
3191.000000	1.234054  
3190.000000	1.227855  
3189.000000	1.203179  
3188.000000	1.160311  
3187.000000	1.129794  
3186.000000	1.119875  
3185.000000	1.109075  
3184.000000	1.092171  
3183.000000	1.086020  
3182.000000	1.090216  
3181.000000	1.087498  
3180.000000	1.076292  
3179.000000	1.066327  
3178.000000	1.052808  
3177.000000	1.028132  
3176.000000	1.003837  
3175.000000	0.992941  
3174.000000	0.985908  
3173.000000	0.969958  
3172.000000	0.952625  
3171.000000	0.944995  
3170.000000	0.940847  
3169.000000	0.929164  
3168.000000	0.910282  
3167.000000	0.886750  
3166.000000	0.857830  
3165.000000	0.831103  
3164.000000	0.819873  
3163.000000	0.821661  
3162.000000	0.816345  
3161.000000	0.791931  
3160.000000	0.760221  
3159.000000	0.742316  
3158.000000	0.744128  
3157.000000	0.751638  
3156.000000	0.749897  
3155.000000	0.740790  
3154.000000	0.733447  
3153.000000	0.726032  
3152.000000	0.712442  
3151.000000	0.698423  
3150.000000	0.690126  
3149.000000	0.679564  
3148.000000	0.661706  
3147.000000	0.649452  
3146.000000	0.648522  
3145.000000	0.641727  
3144.000000	0.621795  
3143.000000	0.608801  
3142.000000	0.611257  
3141.000000	0.605916  
3140.000000	0.580430  
3139.000000	0.556921  
3138.000000	0.552654  
3137.000000	0.556278  
3136.000000	0.558996  
3135.000000	0.568318  
3134.000000	0.579500  
3133.000000	0.574016  
3132.000000	0.554275  
3131.000000	0.541567  
3130.000000	0.538921  
3129.000000	0.533080  
3128.000000	0.526356  
3127.000000	0.528597  
3126.000000	0.528526  
3125.000000	0.511336  
3124.000000	0.491714  
3123.000000	0.492620  
3122.000000	0.506711  
3121.000000	0.510787  
3120.000000	0.501441  
3119.000000	0.488710  
3118.000000	0.473189  
3117.000000	0.454545  
3116.000000	0.442147  
3115.000000	0.438523  
3114.000000	0.431656  
3113.000000	0.417160  
3112.000000	0.409150  
3111.000000	0.417923  
3110.000000	0.433540  
3109.000000	0.439691  
3108.000000	0.432348  
3107.000000	0.419330  
3106.000000	0.408434  
3105.000000	0.400471  
3104.000000	0.393915  
3103.000000	0.389957  
3102.000000	0.388669  
3101.000000	0.383973  
3100.000000	0.374507  
3099.000000	0.372362  
3098.000000	0.384855  
3097.000000	0.396275  
3096.000000	0.389552  
3095.000000	0.372362  
3094.000000	0.359535  
3093.000000	0.347423  
3092.000000	0.331568  
3091.000000	0.325131  
3090.000000	0.334548  
3089.000000	0.342702  
3088.000000	0.341415  
3087.000000	0.347805  
3086.000000	0.367474  
3085.000000	0.378894  
3084.000000	0.373387  
3083.000000	0.370812  
3082.000000	0.379800  
3081.000000	0.385046  
3080.000000	0.383496  
3079.000000	0.388574  
3078.000000	0.393652  
3077.000000	0.376820  
3076.000000	0.344419  
3075.000000	0.326251  
3074.000000	0.329375  
3073.000000	0.336885  
3072.000000	0.344061  
3071.000000	0.357794  
3070.000000	0.370430  
3069.000000	0.370526  
3068.000000	0.366759  
3067.000000	0.371932  
3066.000000	0.378203  
3065.000000	0.372076  
3064.000000	0.359416  
3063.000000	0.355052  
3062.000000	0.361371  
3061.000000	0.371766  
3060.000000	0.382375  
3059.000000	0.389885  
3058.000000	0.388598  
3057.000000	0.377178  
3056.000000	0.363707  
3055.000000	0.359320  
3054.000000	0.367188  
3053.000000	0.379800  
3052.000000	0.388932  
3051.000000	0.395989  
3050.000000	0.405120  
3049.000000	0.410795  
3048.000000	0.405836  
3047.000000	0.397825  
3046.000000	0.399136  
3045.000000	0.405430  
3044.000000	0.405502  
3043.000000	0.403809  
3042.000000	0.411128  
3041.000000	0.423884  
3040.000000	0.435757  
3039.000000	0.453305  
3038.000000	0.474882  
3037.000000	0.480127  
3036.000000	0.463271  
3035.000000	0.450730  
3034.000000	0.459742  
3033.000000	0.472831  
3032.000000	0.473785  
3031.000000	0.474286  
3030.000000	0.483059  
3029.000000	0.488495  
3028.000000	0.487804  
3027.000000	0.497484  
3026.000000	0.521755  
3025.000000	0.545096  
3024.000000	0.563216  
3023.000000	0.587964  
3022.000000	0.621461  
3021.000000	0.654625  
3020.000000	0.694203  
3019.000000	0.754833  
3018.000000	0.835990  
3017.000000	0.924539  
3016.000000	1.024150  
3015.000000	1.149058  
3014.000000	1.307821  
3013.000000	1.505994  
3012.000000	1.753091  
3011.000000	2.058362  
3010.000000	2.413797  
3009.000000	2.815127  
3008.000000	3.268265  
3007.000000	3.781843  
3006.000000	4.338693  
3005.000000	4.896974  
3004.000000	5.417490  
3003.000000	5.889987  
3002.000000	6.319499  
3001.000000	6.675887  
3000.000000	6.874179  
2999.000000	6.811428  
2998.000000	6.451106  
2997.000000	5.863904  
2996.000000	5.211710  
2995.000000	4.663276  
2994.000000	4.323005  
2993.000000	4.201126  
2992.000000	4.265451  
2991.000000	4.491376  
2990.000000	4.889869  
2989.000000	5.471706  
2988.000000	6.236314  
2987.000000	7.146573  
2986.000000	8.112049  
2985.000000	8.981275  
2984.000000	9.581303  
2983.000000	9.778642  
2982.000000	9.499192  
2981.000000	8.779740  
2980.000000	7.785105  
2979.000000	6.767249  
2978.000000	5.898594  
2977.000000	5.209589  
2976.000000	4.648828  
2975.000000	4.191827  
2974.000000	3.848004  
2973.000000	3.642177  
2972.000000	3.607487  
2971.000000	3.769326  
2970.000000	4.109525  
2969.000000	4.570531  
2968.000000	5.100512  
2967.000000	5.674743  
2966.000000	6.293201  
2965.000000	6.976890  
2964.000000	7.771134  
2963.000000	8.693170  
2962.000000	9.690880  
2961.000000	10.626268 
2960.000000	11.336088 
2959.000000	11.681866 
2958.000000	11.604833 
2957.000000	11.136794 
2956.000000	10.396027 
2955.000000	9.549713  
2954.000000	8.753538  
2953.000000	8.109831  
2952.000000	7.652521  
2951.000000	7.397317  
2950.000000	7.357358  
2949.000000	7.541227  
2948.000000	7.913398  
2947.000000	8.399033  
2946.000000	8.889102  
2945.000000	9.265804  
2944.000000	9.430694  
2943.000000	9.346270  
2942.000000	9.041047  
2941.000000	8.592724  
2940.000000	8.101868  
2939.000000	7.671284  
2938.000000	7.367086  
2937.000000	7.198119  
2936.000000	7.137560  
2935.000000	7.167220  
2934.000000	7.284522  
2933.000000	7.486534  
2932.000000	7.770299  
2931.000000	8.132576  
2930.000000	8.559942  
2929.000000	8.999514  
2928.000000	9.384226  
2927.000000	9.651803  
2926.000000	9.772038  
2925.000000	9.760522  
2924.000000	9.702229  
2923.000000	9.719204  
2922.000000	9.897923  
2921.000000	10.239958 
2920.000000	10.678148 
2919.000000	11.094832 
2918.000000	11.336565 
2917.000000	11.260986 
2916.000000	10.815095 
2915.000000	10.062861 
2914.000000	9.137868  
2913.000000	8.177185  
2912.000000	7.283139  
2911.000000	6.511831  
2910.000000	5.873155  
2909.000000	5.348944  
2908.000000	4.913735  
2907.000000	4.550123  
2906.000000	4.250240  
2905.000000	4.016065  
2904.000000	3.846216  
2903.000000	3.728604  
2902.000000	3.642940  
2901.000000	3.579020  
2900.000000	3.548264  
2899.000000	3.565716  
2898.000000	3.637313  
2897.000000	3.740859  
2896.000000	3.850817  
2895.000000	3.946042  
2894.000000	4.020380  
2893.000000	4.064130  
2892.000000	4.072880  
2891.000000	4.059433  
2890.000000	4.049897  
2889.000000	4.055762  
2888.000000	4.074144  
2887.000000	4.108929  
2886.000000	4.172921  
2885.000000	4.264616  
2884.000000	4.369449  
2883.000000	4.477906  
2882.000000	4.582953  
2881.000000	4.663920  
2880.000000	4.704403  
2879.000000	4.711604  
2878.000000	4.702877  
2877.000000	4.678964  
2876.000000	4.636931  
2875.000000	4.584193  
2874.000000	4.525089  
2873.000000	4.444813  
2872.000000	4.332685  
2871.000000	4.199862  
2870.000000	4.064965  
2869.000000	3.930830  
2868.000000	3.791832  
2867.000000	3.645634  
2866.000000	3.493571  
2865.000000	3.335833  
2864.000000	3.175568  
2863.000000	3.017067  
2862.000000	2.861595  
2861.000000	2.706360  
2860.000000	2.551317  
2859.000000	2.404308  
2858.000000	2.276372  
2857.000000	2.169466  
2856.000000	2.073884  
2855.000000	1.980638  
2854.000000	1.894140  
2853.000000	1.821398  
2852.000000	1.757526  
2851.000000	1.689648  
2850.000000	1.616454  
2849.000000	1.549220  
2848.000000	1.498436  
2847.000000	1.459670  
2846.000000	1.419949  
2845.000000	1.369500  
2844.000000	1.313471  
2843.000000	1.266932  
2842.000000	1.240491  
2841.000000	1.226305  
2840.000000	1.207804  
2839.000000	1.178646  
2838.000000	1.147699  
2837.000000	1.122999  
2836.000000	1.103901  
2835.000000	1.087975  
2834.000000	1.074934  
2833.000000	1.061439  
2832.000000	1.044440  
2831.000000	1.029658  
2830.000000	1.024007  
2829.000000	1.022696  
2828.000000	1.016449  
2827.000000	1.008152  
2826.000000	1.006889  
2825.000000	1.011276  
2824.000000	1.010489  
2823.000000	0.998902  
2822.000000	0.979351  
2821.000000	0.957918  
2820.000000	0.941705  
2819.000000	0.937652  
2818.000000	0.945162  
2817.000000	0.953674  
2816.000000	0.951695  
2815.000000	0.937485  
2814.000000	0.918126  
2813.000000	0.901293  
2812.000000	0.889635  
2811.000000	0.881052  
2810.000000	0.873708  
2809.000000	0.870490  
2808.000000	0.877475  
2807.000000	0.894188  
2806.000000	0.908327  
2805.000000	0.906777  
2804.000000	0.889873  
2803.000000	0.867152  
2802.000000	0.842952  
2801.000000	0.816273  
2800.000000	0.790667  
2799.000000	0.774121  
2798.000000	0.769186  
2797.000000	0.772619  
2796.000000	0.781154  
2795.000000	0.792050  
2794.000000	0.799703  
2793.000000	0.797152  
2792.000000	0.783157  
2791.000000	0.765657  
2790.000000	0.754380  
2789.000000	0.748467  
2788.000000	0.737643  
2787.000000	0.718688  
2786.000000	0.700497  
2785.000000	0.688457  
2784.000000	0.678420  
2783.000000	0.668787  
2782.000000	0.663375  
2781.000000	0.659680  
2780.000000	0.651121  
2779.000000	0.642776  
2778.000000	0.645470  
2777.000000	0.655579  
2776.000000	0.658655  
2775.000000	0.652027  
2774.000000	0.645446  
2773.000000	0.642967  
2772.000000	0.642108  
2771.000000	0.645375  
2770.000000	0.655770  
2769.000000	0.667357  
2768.000000	0.673270  
2767.000000	0.676059  
2766.000000	0.678706  
2765.000000	0.677347  
2764.000000	0.671744  
2763.000000	0.670719  
2762.000000	0.677537  
2761.000000	0.681805  
2760.000000	0.674629  
2759.000000	0.662779  
2758.000000	0.660800  
2757.000000	0.673127  
2756.000000	0.689911  
2755.000000	0.699234  
2754.000000	0.699424  
2753.000000	0.697016  
2752.000000	0.695085  
2751.000000	0.691509  
2750.000000	0.687122  
2749.000000	0.685977  
2748.000000	0.686693  
2747.000000	0.684404  
2746.000000	0.679564  
2745.000000	0.675892  
2744.000000	0.672602  
2743.000000	0.667428  
2742.000000	0.662398  
2741.000000	0.656628  
2740.000000	0.642514  
2739.000000	0.619888  
2738.000000	0.602221  
2737.000000	0.598192  
2736.000000	0.598883  
2735.000000	0.593781  
2734.000000	0.585293  
2733.000000	0.578808  
2732.000000	0.574302  
2731.000000	0.575137  
2730.000000	0.588798  
2729.000000	0.611352  
2728.000000	0.627231  
2727.000000	0.628876  
2726.000000	0.623011  
2725.000000	0.616145  
2724.000000	0.608086  
2723.000000	0.601553  
2722.000000	0.603127  
2721.000000	0.613379  
2720.000000	0.625753  
2719.000000	0.634503  
2718.000000	0.636577  
2717.000000	0.630140  
2716.000000	0.618028  
2715.000000	0.609207  
2714.000000	0.609040  
2713.000000	0.611877  
2712.000000	0.609302  
2711.000000	0.601458  
2710.000000	0.596427  
2709.000000	0.599312  
2708.000000	0.607299  
2707.000000	0.613856  
2706.000000	0.616097  
2705.000000	0.617051  
2704.000000	0.620269  
2703.000000	0.623130  
2702.000000	0.617718  
2701.000000	0.600743  
2700.000000	0.580859  
2699.000000	0.571846  
2698.000000	0.578093  
2697.000000	0.588512  
2696.000000	0.587177  
2695.000000	0.571703  
2694.000000	0.558257  
2693.000000	0.562715  
2692.000000	0.580978  
2691.000000	0.596308  
2690.000000	0.599908  
2689.000000	0.593924  
2688.000000	0.582242  
2687.000000	0.572896  
2686.000000	0.577640  
2685.000000	0.595092  
2684.000000	0.607609  
2683.000000	0.608587  
2682.000000	0.614237  
2681.000000	0.633621  
2680.000000	0.649547  
2679.000000	0.644922  
2678.000000	0.627470  
2677.000000	0.614786  
2676.000000	0.612473  
2675.000000	0.617623  
2674.000000	0.626182  
2673.000000	0.630640  
2672.000000	0.624346  
2671.000000	0.612521  
2670.000000	0.606369  
2669.000000	0.607299  
2668.000000	0.610256  
2667.000000	0.617003  
2666.000000	0.630354  
2665.000000	0.641655  
2664.000000	0.640797  
2663.000000	0.632905  
2662.000000	0.629568  
2661.000000	0.629377  
2660.000000	0.622153  
2659.000000	0.607109  
2658.000000	0.594425  
2657.000000	0.592088  
2656.000000	0.598359  
2655.000000	0.604152  
2654.000000	0.600814  
2653.000000	0.586628  
2652.000000	0.567626  
2651.000000	0.553226  
2650.000000	0.551199  
2649.000000	0.558519  
2648.000000	0.558519  
2647.000000	0.539040  
2646.000000	0.512695  
2645.000000	0.500392  
2644.000000	0.498676  
2643.000000	0.487518  
2642.000000	0.466799  
2641.000000	0.456213  
2640.000000	0.460863  
2639.000000	0.464820  
2638.000000	0.458240  
2637.000000	0.446605  
2636.000000	0.435185  
2635.000000	0.424194  
2634.000000	0.416707  
2633.000000	0.416064  
2632.000000	0.418424  
2631.000000	0.417709  
2630.000000	0.412225  
2629.000000	0.400495  
2628.000000	0.380778  
2627.000000	0.360798  
2626.000000	0.353717  
2625.000000	0.358176  
2624.000000	0.358319  
2623.000000	0.348830  
2622.000000	0.341081  
2621.000000	0.339674  
2620.000000	0.335860  
2619.000000	0.329828  
2618.000000	0.333809  
2617.000000	0.348114  
2616.000000	0.356912  
2615.000000	0.351333  
2614.000000	0.339794  
2613.000000	0.332427  
2612.000000	0.331521  
2611.000000	0.336551  
2610.000000	0.345325  
2609.000000	0.351548  
2608.000000	0.348687  
2607.000000	0.336241  
2606.000000	0.318598  
2605.000000	0.300478  
2604.000000	0.284695  
2603.000000	0.274467  
2602.000000	0.274538  
2601.000000	0.285816  
2600.000000	0.297188  
2599.000000	0.292539  
2598.000000	0.270771  
2597.000000	0.248384  
2596.000000	0.236892  
2595.000000	0.232005  
2594.000000	0.229263  
2593.000000	0.231838  
2592.000000	0.238060  
2591.000000	0.240993  
2590.000000	0.243663  
2589.000000	0.253272  
2588.000000	0.262784  
2587.000000	0.260972  
2586.000000	0.256824  
2585.000000	0.266265  
2584.000000	0.281572  
2583.000000	0.284743  
2582.000000	0.280475  
2581.000000	0.284719  
2580.000000	0.293874  
2579.000000	0.294589  
2578.000000	0.289082  
2577.000000	0.284004  
2576.000000	0.275397  
2575.000000	0.267124  
2574.000000	0.277853  
2573.000000	0.308251  
2572.000000	0.329589  
2571.000000	0.323724  
2570.000000	0.308418  
2569.000000	0.305771  
2568.000000	0.310873  
2567.000000	0.307011  
2566.000000	0.293755  
2565.000000	0.284814  
2564.000000	0.287461  
2563.000000	0.293707  
2562.000000	0.291061  
2561.000000	0.278282  
2560.000000	0.269150  
2559.000000	0.277280  
2558.000000	0.298404  
2557.000000	0.314331  
2556.000000	0.315165  
2555.000000	0.310111  
2554.000000	0.313377  
2553.000000	0.324821  
2552.000000	0.329160  
2551.000000	0.315117  
2550.000000	0.290942  
2549.000000	0.275611  
2548.000000	0.273871  
2547.000000	0.274252  
2546.000000	0.274825  
2545.000000	0.287723  
2544.000000	0.310134  
2543.000000	0.319838  
2542.000000	0.312781  
2541.000000	0.311732  
2540.000000	0.324630  
2539.000000	0.330638  
2538.000000	0.320124  
2537.000000	0.313591  
2536.000000	0.327801  
2535.000000	0.353503  
2534.000000	0.374364  
2533.000000	0.383305  
2532.000000	0.378203  
2531.000000	0.364089  
2530.000000	0.355219  
2529.000000	0.356888  
2528.000000	0.352692  
2527.000000	0.330972  
2526.000000	0.308561  
2525.000000	0.306224  
2524.000000	0.316357  
2523.000000	0.319051  
2522.000000	0.311660  
2521.000000	0.301837  
2520.000000	0.290584  
2519.000000	0.282788  
2518.000000	0.290584  
2517.000000	0.308036  
2516.000000	0.308799  
2515.000000	0.285005  
2514.000000	0.260329  
2513.000000	0.252890  
2512.000000	0.254440  
2511.000000	0.254440  
2510.000000	0.255036  
2509.000000	0.255513  
2508.000000	0.249433  
2507.000000	0.240683  
2506.000000	0.240516  
2505.000000	0.248265  
2504.000000	0.252079  
2503.000000	0.248980  
2502.000000	0.248193  
2501.000000	0.255179  
2500.000000	0.264191  
2499.000000	0.268602  
2498.000000	0.273132  
2497.000000	0.289702  
2496.000000	0.319385  
2495.000000	0.345635  
2494.000000	0.352215  
2493.000000	0.341081  
2492.000000	0.324964  
2491.000000	0.311470  
2490.000000	0.303435  
2489.000000	0.303435  
2488.000000	0.308322  
2487.000000	0.310134  
2486.000000	0.308918  
2485.000000	0.310587  
2484.000000	0.310063  
2483.000000	0.299024  
2482.000000	0.287985  
2481.000000	0.292038  
2480.000000	0.298595  
2479.000000	0.285029  
2478.000000	0.261092  
2477.000000	0.253272  
2476.000000	0.258421  
2475.000000	0.258541  
2474.000000	0.263643  
2473.000000	0.290346  
2472.000000	0.319004  
2471.000000	0.322771  
2470.000000	0.313925  
2469.000000	0.317478  
2468.000000	0.325775  
2467.000000	0.320291  
2466.000000	0.309348  
2465.000000	0.308203  
2464.000000	0.312066  
2463.000000	0.314164  
2462.000000	0.320315  
2461.000000	0.326418  
2460.000000	0.315880  
2459.000000	0.293183  
2458.000000	0.284767  
2457.000000	0.297307  
2456.000000	0.309181  
2455.000000	0.308012  
2454.000000	0.305342  
2453.000000	0.309514  
2452.000000	0.313544  
2451.000000	0.313401  
2450.000000	0.316977  
2449.000000	0.329613  
2448.000000	0.342726  
2447.000000	0.342726  
2446.000000	0.328087  
2445.000000	0.312900  
2444.000000	0.308418  
2443.000000	0.310540  
2442.000000	0.313115  
2441.000000	0.319719  
2440.000000	0.328326  
2439.000000	0.322866  
2438.000000	0.298643  
2437.000000	0.275206  
2436.000000	0.266027  
2435.000000	0.259709  
2434.000000	0.247764  
2433.000000	0.241899  
2432.000000	0.248527  
2431.000000	0.257086  
2430.000000	0.263309  
2429.000000	0.271701  
2428.000000	0.271439  
2427.000000	0.249505  
2426.000000	0.226330  
2425.000000	0.233507  
2424.000000	0.261545  
2423.000000	0.275588  
2422.000000	0.272417  
2421.000000	0.271439  
2420.000000	0.267195  
2419.000000	0.245356  
2418.000000	0.224733  
2417.000000	0.229048  
2416.000000	0.241804  
2415.000000	0.236630  
2414.000000	0.223016  
2413.000000	0.221180  
2412.000000	0.225067  
2411.000000	0.226712  
2410.000000	0.239086  
2409.000000	0.263428  
2408.000000	0.273513  
2407.000000	0.258302  
2406.000000	0.241684  
2405.000000	0.242352  
2404.000000	0.249934  
2403.000000	0.253939  
2402.000000	0.262379  
2401.000000	0.280475  
2400.000000	0.295782  
2399.000000	0.294566  
2398.000000	0.279951  
2397.000000	0.266814  
2396.000000	0.262784  
2395.000000	0.261473  
2394.000000	0.257325  
2393.000000	0.257515  
2392.000000	0.268316  
2391.000000	0.278615  
2390.000000	0.275325  
2389.000000	0.265789  
2388.000000	0.265336  
2387.000000	0.273013  
2386.000000	0.277519  
2385.000000	0.276780  
2384.000000	0.276350  
2383.000000	0.277256  
2382.000000	0.278162  
2381.000000	0.278139  
2380.000000	0.269269  
2379.000000	0.245118  
2378.000000	0.220561  
2377.000000	0.219774  
2376.000000	0.239539  
2375.000000	0.254058  
2374.000000	0.257349  
2373.000000	0.261330  
2372.000000	0.257825  
2371.000000	0.231361  
2370.000000	0.203752  
2369.000000	0.207924  
2368.000000	0.228881  
2367.000000	0.231885  
2366.000000	0.227713  
2365.000000	0.242233  
2364.000000	0.254416  
2363.000000	0.235438  
2362.000000	0.211524  
2361.000000	0.219440  
2360.000000	0.242710  
2359.000000	0.251102  
2358.000000	0.255942  
2357.000000	0.272488  
2356.000000	0.276589  
2355.000000	0.246953  
2354.000000	0.208163  
2353.000000	0.194025  
2352.000000	0.203418  
2351.000000	0.215530  
2350.000000	0.219345  
2349.000000	0.214314  
2348.000000	0.205230  
2347.000000	0.205636  
2346.000000	0.226593  
2345.000000	0.260066  
2344.000000	0.284028  
2343.000000	0.284433  
2342.000000	0.269794  
2341.000000	0.260734  
2340.000000	0.266838  
2339.000000	0.277566  
2338.000000	0.281095  
2337.000000	0.279617  
2336.000000	0.272917  
2335.000000	0.248789  
2334.000000	0.214338  
2333.000000	0.209236  
2332.000000	0.256371  
2331.000000	0.324320  
2330.000000	0.368189  
2329.000000	0.378417  
2328.000000	0.364136  
2327.000000	0.326800  
2326.000000	0.279188  
2325.000000	0.249862  
2324.000000	0.244760  
2323.000000	0.241112  
2322.000000	0.233340  
2321.000000	0.239825  
2320.000000	0.257682  
2319.000000	0.262069  
2318.000000	0.253725  
2317.000000	0.253081  
2316.000000	0.252389  
2315.000000	0.232148  
2314.000000	0.211572  
2313.000000	0.218248  
2312.000000	0.229549  
2311.000000	0.212454  
2310.000000	0.191140  
2309.000000	0.202894  
2308.000000	0.226688  
2307.000000	0.225996  
2306.000000	0.216937  
2305.000000	0.229120  
2304.000000	0.245046  
2303.000000	0.236296  
2302.000000	0.215411  
2301.000000	0.206375  
2300.000000	0.204992  
2299.000000	0.201463  
2298.000000	0.204730  
2297.000000	0.218987  
2296.000000	0.227284  
2295.000000	0.215363  
2294.000000	0.192642  
2293.000000	0.178360  
2292.000000	0.178074  
2291.000000	0.180959  
2290.000000	0.176310  
2289.000000	0.169253  
2288.000000	0.171828  
2287.000000	0.183391  
2286.000000	0.192546  
2285.000000	0.195026  
2284.000000	0.193881  
2283.000000	0.188040  
2282.000000	0.178360  
2281.000000	0.175333  
2280.000000	0.182652  
2279.000000	0.186681  
2278.000000	0.182604  
2277.000000	0.188183  
2276.000000	0.209712  
2275.000000	0.225472  
2274.000000	0.226593  
2273.000000	0.234675  
2272.000000	0.256156  
2271.000000	0.266671  
2270.000000	0.261592  
2269.000000	0.264644  
2268.000000	0.270390  
2267.000000	0.245523  
2266.000000	0.200200  
2265.000000	0.183939  
2264.000000	0.202894  
2263.000000	0.215864  
2262.000000	0.211882  
2261.000000	0.214147  
2260.000000	0.215816  
2259.000000	0.193738  
2258.000000	0.169181  
2257.000000	0.175714  
2256.000000	0.192809  
2255.000000	0.183510  
2254.000000	0.163149  
2253.000000	0.162577  
2252.000000	0.166869  
2251.000000	0.153851  
2250.000000	0.145649  
2249.000000	0.166106  
2248.000000	0.193023  
2247.000000	0.198817  
2246.000000	0.194096  
2245.000000	0.194978  
2244.000000	0.192332  
2243.000000	0.180125  
2242.000000	0.173449  
2241.000000	0.180077  
2240.000000	0.186562  
2239.000000	0.184059  
2238.000000	0.181031  
2237.000000	0.183963  
2236.000000	0.183296  
2235.000000	0.166392  
2234.000000	0.139808  
2233.000000	0.128197  
2232.000000	0.143027  
2231.000000	0.163197  
2230.000000	0.167131  
2229.000000	0.165724  
2228.000000	0.174856  
2227.000000	0.180315  
2226.000000	0.171470  
2225.000000	0.174665  
2224.000000	0.206923  
2223.000000	0.237274  
2222.000000	0.241041  
2221.000000	0.240731  
2220.000000	0.247883  
2219.000000	0.231885  
2218.000000	0.189876  
2217.000000	0.169539  
2216.000000	0.183200  
2215.000000	0.183367  
2214.000000	0.154232  
2213.000000	0.137877  
2212.000000	0.148367  
2211.000000	0.151491  
2210.000000	0.142574  
2209.000000	0.155234  
2208.000000	0.184869  
2207.000000	0.188279  
2206.000000	0.160312  
2205.000000	0.136423  
2204.000000	0.127863  
2203.000000	0.121545  
2202.000000	0.124692  
2201.000000	0.145125  
2200.000000	0.156664  
2199.000000	0.138807  
2198.000000	0.118899  
2197.000000	0.127744  
2196.000000	0.150036  
2195.000000	0.159788  
2194.000000	0.165271  
2193.000000	0.180912  
2192.000000	0.192761  
2191.000000	0.185489  
2190.000000	0.171709  
2189.000000	0.172138  
2188.000000	0.189685  
2187.000000	0.215959  
2186.000000	0.243854  
2185.000000	0.264978  
2184.000000	0.269770  
2183.000000	0.257778  
2182.000000	0.244140  
2181.000000	0.248432  
2180.000000	0.268745  
2179.000000	0.274944  
2178.000000	0.243973  
2177.000000	0.194454  
2176.000000	0.164079  
2175.000000	0.163435  
2174.000000	0.178813  
2173.000000	0.202798  
2172.000000	0.228500  
2171.000000	0.235438  
2170.000000	0.217676  
2169.000000	0.200438  
2168.000000	0.198602  
2167.000000	0.192785  
2166.000000	0.176620  
2165.000000	0.177478  
2164.000000	0.199365  
2163.000000	0.205826  
2162.000000	0.188684  
2161.000000	0.185060  
2160.000000	0.202488  
2159.000000	0.204825  
2158.000000	0.188422  
2157.000000	0.190448  
2156.000000	0.209259  
2155.000000	0.202798  
2154.000000	0.170612  
2153.000000	0.154399  
2152.000000	0.159430  
2151.000000	0.156664  
2150.000000	0.150275  
2149.000000	0.164222  
2148.000000	0.183439  
2147.000000	0.181245  
2146.000000	0.174570  
2145.000000	0.187921  
2144.000000	0.200724  
2143.000000	0.188684  
2142.000000	0.174736  
2141.000000	0.187063  
2140.000000	0.209474  
2139.000000	0.216221  
2138.000000	0.216388  
2137.000000	0.227427  
2136.000000	0.241017  
2135.000000	0.241637  
2134.000000	0.232577  
2133.000000	0.224900  
2132.000000	0.220561  
2131.000000	0.216221  
2130.000000	0.212359  
2129.000000	0.213575  
2128.000000	0.220632  
2127.000000	0.226473  
2126.000000	0.226306  
2125.000000	0.226879  
2124.000000	0.233006  
2123.000000	0.233936  
2122.000000	0.223875  
2121.000000	0.221252  
2120.000000	0.239276  
2119.000000	0.256872  
2118.000000	0.254225  
2117.000000	0.249934  
2116.000000	0.265884  
2115.000000	0.286173  
2114.000000	0.288724  
2113.000000	0.283765  
2112.000000	0.284838  
2111.000000	0.280451  
2110.000000	0.268578  
2109.000000	0.271534  
2108.000000	0.290298  
2107.000000	0.295281  
2106.000000	0.282120  
2105.000000	0.278019  
2104.000000	0.281691  
2103.000000	0.264787  
2102.000000	0.238275  
2101.000000	0.241827  
2100.000000	0.267100  
2099.000000	0.267982  
2098.000000	0.243163  
2097.000000	0.230312  
2096.000000	0.232601  
2095.000000	0.229263  
2094.000000	0.235009  
2093.000000	0.270843  
2092.000000	0.307154  
2091.000000	0.307750  
2090.000000	0.292325  
2089.000000	0.290346  
2088.000000	0.282430  
2087.000000	0.244808  
2086.000000	0.202202  
2085.000000	0.184750  
2084.000000	0.181460  
2083.000000	0.178360  
2082.000000	0.190854  
2081.000000	0.225424  
2080.000000	0.255250  
2079.000000	0.260162  
2078.000000	0.254702  
2077.000000	0.260043  
2076.000000	0.274801  
2075.000000	0.284337  
2074.000000	0.282263  
2073.000000	0.274467  
2072.000000	0.265979  
2071.000000	0.252008  
2070.000000	0.230503  
2069.000000	0.214958  
2068.000000	0.215816  
2067.000000	0.219488  
2066.000000	0.214481  
2065.000000	0.216722  
2064.000000	0.235962  
2063.000000	0.245928  
2062.000000	0.230288  
2061.000000	0.218367  
2060.000000	0.230407  
2059.000000	0.237154  
2058.000000	0.219297  
2057.000000	0.208163  
2056.000000	0.221467  
2055.000000	0.226283  
2054.000000	0.207376  
2053.000000	0.196051  
2052.000000	0.198984  
2051.000000	0.183486  
2050.000000	0.155496  
2049.000000	0.160121  
2048.000000	0.192284  
2047.000000	0.201940  
2046.000000	0.190138  
2045.000000	0.202798  
2044.000000	0.233721  
2043.000000	0.233411  
2042.000000	0.203204  
2041.000000	0.185608  
2040.000000	0.181794  
2039.000000	0.165081  
2038.000000	0.146508  
2037.000000	0.149512  
2036.000000	0.156831  
2035.000000	0.150299  
2034.000000	0.156474  
2033.000000	0.195384  
2032.000000	0.232720  
2031.000000	0.233602  
2030.000000	0.215291  
2029.000000	0.205945  
2028.000000	0.200295  
2027.000000	0.188875  
2026.000000	0.185108  
2025.000000	0.196123  
2024.000000	0.203585  
2023.000000	0.192451  
2022.000000	0.171160  
2021.000000	0.155162  
2020.000000	0.149011  
2019.000000	0.149250  
2018.000000	0.154018  
2017.000000	0.163841  
2016.000000	0.174570  
2015.000000	0.176215  
2014.000000	0.169801  
2013.000000	0.173401  
2012.000000	0.190639  
2011.000000	0.193548  
2010.000000	0.168156  
2009.000000	0.148081  
2008.000000	0.161600  
2007.000000	0.184273  
2006.000000	0.188922  
2005.000000	0.192403  
2004.000000	0.204467  
2003.000000	0.196218  
2002.000000	0.168251  
2001.000000	0.171113  
2000.000000	0.211119  
1999.000000	0.228524  
1998.000000	0.206661  
1997.000000	0.197625  
1996.000000	0.212883  
1995.000000	0.204205  
1994.000000	0.171279  
1993.000000	0.168776  
1992.000000	0.195765  
1991.000000	0.195479  
1990.000000	0.166058  
1989.000000	0.159811  
1988.000000	0.180530  
1987.000000	0.188875  
1986.000000	0.187015  
1985.000000	0.200724  
1984.000000	0.211286  
1983.000000	0.192999  
1982.000000	0.174498  
1981.000000	0.187540  
1980.000000	0.204157  
1979.000000	0.190019  
1978.000000	0.168180  
1977.000000	0.173115  
1976.000000	0.190973  
1975.000000	0.193715  
1974.000000	0.187134  
1973.000000	0.188732  
1972.000000	0.196051  
1971.000000	0.200963  
1970.000000	0.205540  
1969.000000	0.209617  
1968.000000	0.206971  
1967.000000	0.200128  
1966.000000	0.200915  
1965.000000	0.213551  
1964.000000	0.225710  
1963.000000	0.220680  
1962.000000	0.199127  
1961.000000	0.181770  
1960.000000	0.180697  
1959.000000	0.181221  
1958.000000	0.171923  
1957.000000	0.171232  
1956.000000	0.191164  
1955.000000	0.205063  
1954.000000	0.192332  
1953.000000	0.179100  
1952.000000	0.188684  
1951.000000	0.197625  
1950.000000	0.188350  
1949.000000	0.188994  
1948.000000	0.213432  
1947.000000	0.228714  
1946.000000	0.224947  
1945.000000	0.237584  
1944.000000	0.266885  
1943.000000	0.267457  
1942.000000	0.242590  
1941.000000	0.246715  
1940.000000	0.277495  
1939.000000	0.276827  
1938.000000	0.243520  
1937.000000	0.232124  
1936.000000	0.242471  
1935.000000	0.228047  
1934.000000	0.199961  
1933.000000	0.205802  
1932.000000	0.230479  
1931.000000	0.230026  
1930.000000	0.223946  
1929.000000	0.252413  
1928.000000	0.290846  
1927.000000	0.301289  
1926.000000	0.308179  
1925.000000	0.341677  
1924.000000	0.368714  
1923.000000	0.350522  
1922.000000	0.310373  
1921.000000	0.285077  
1920.000000	0.267124  
1919.000000	0.238108  
1918.000000	0.210213  
1917.000000	0.201702  
1916.000000	0.208044  
1915.000000	0.217103  
1914.000000	0.226545  
1913.000000	0.237369  
1912.000000	0.244426  
1911.000000	0.243163  
1910.000000	0.244832  
1909.000000	0.273633  
1908.000000	0.330042  
1907.000000	0.371670  
1906.000000	0.364518  
1905.000000	0.334095  
1904.000000	0.320863  
1903.000000	0.315380  
1902.000000	0.293850  
1901.000000	0.277543  
1900.000000	0.289750  
1899.000000	0.300908  
1898.000000	0.283813  
1897.000000	0.268125  
1896.000000	0.278115  
1895.000000	0.281453  
1894.000000	0.258874  
1893.000000	0.245881  
1892.000000	0.255250  
1891.000000	0.246906  
1890.000000	0.216865  
1889.000000	0.216054  
1888.000000	0.249361  
1887.000000	0.261282  
1886.000000	0.243759  
1885.000000	0.247144  
1884.000000	0.275206  
1883.000000	0.280594  
1882.000000	0.265121  
1881.000000	0.270223  
1880.000000	0.281763  
1879.000000	0.257802  
1878.000000	0.223469  
1877.000000	0.226473  
1876.000000	0.241160  
1875.000000	0.222873  
1874.000000	0.201964  
1873.000000	0.223135  
1872.000000	0.254702  
1871.000000	0.248575  
1870.000000	0.225949  
1869.000000	0.228428  
1868.000000	0.243353  
1867.000000	0.239586  
1866.000000	0.226068  
1865.000000	0.227189  
1864.000000	0.238347  
1863.000000	0.238513  
1862.000000	0.224065  
1861.000000	0.210213  
1860.000000	0.207471  
1859.000000	0.206899  
1858.000000	0.195288  
1857.000000	0.180816  
1856.000000	0.182867  
1855.000000	0.199508  
1854.000000	0.212264  
1853.000000	0.219058  
1852.000000	0.226545  
1851.000000	0.222659  
1850.000000	0.201725  
1849.000000	0.194096  
1848.000000	0.219368  
1847.000000	0.242948  
1846.000000	0.234580  
1845.000000	0.221896  
1844.000000	0.227618  
1843.000000	0.219798  
1842.000000	0.186467  
1841.000000	0.179243  
1840.000000	0.216031  
1839.000000	0.234460  
1838.000000	0.204157  
1837.000000	0.181627  
1836.000000	0.198507  
1835.000000	0.210404  
1834.000000	0.199699  
1833.000000	0.208067  
1832.000000	0.236558  
1831.000000	0.235772  
1830.000000	0.210237  
1829.000000	0.212025  
1828.000000	0.231766  
1827.000000	0.216364  
1826.000000	0.181818  
1825.000000	0.186443  
1824.000000	0.217103  
1823.000000	0.217199  
1822.000000	0.194501  
1821.000000	0.196647  
1820.000000	0.219464  
1819.000000	0.229310  
1818.000000	0.232863  
1817.000000	0.249099  
1816.000000	0.258970  
1815.000000	0.243067  
1814.000000	0.223183  
1813.000000	0.222420  
1812.000000	0.225710  
1811.000000	0.213217  
1810.000000	0.194811  
1809.000000	0.187325  
1808.000000	0.188398  
1807.000000	0.188422  
1806.000000	0.189900  
1805.000000	0.202131  
1804.000000	0.222277  
1803.000000	0.231170  
1802.000000	0.216031  
1801.000000	0.191807  
1800.000000	0.180196  
1799.000000	0.177121  
1798.000000	0.170850  
1797.000000	0.176000  
1796.000000	0.204324  
1795.000000	0.226449  
1794.000000	0.216126  
1793.000000	0.200438  
1792.000000	0.208878  
1791.000000	0.217843  
1790.000000	0.206851  
1789.000000	0.209403  
1788.000000	0.243020  
1787.000000	0.260519  
1786.000000	0.235176  
1785.000000	0.212526  
1784.000000	0.219440  
1783.000000	0.217628  
1782.000000	0.194740  
1781.000000	0.195598  
1780.000000	0.223350  
1779.000000	0.224065  
1778.000000	0.197505  
1777.000000	0.203680  
1776.000000	0.245213  
1775.000000	0.262475  
1774.000000	0.248789  
1773.000000	0.251722  
1772.000000	0.268435  
1771.000000	0.257611  
1770.000000	0.234794  
1769.000000	0.243663  
1768.000000	0.265026  
1767.000000	0.257515  
1766.000000	0.243449  
1765.000000	0.257849  
1764.000000	0.271940  
1763.000000	0.254535  
1762.000000	0.241565  
1761.000000	0.266170  
1760.000000	0.291204  
1759.000000	0.278520  
1758.000000	0.253319  
1757.000000	0.246286  
1756.000000	0.241160  
1755.000000	0.223898  
1754.000000	0.218105  
1753.000000	0.239467  
1752.000000	0.264263  
1751.000000	0.266170  
1750.000000	0.255179  
1749.000000	0.261330  
1748.000000	0.290060  
1747.000000	0.309252  
1746.000000	0.295972  
1745.000000	0.276088  
1744.000000	0.281476  
1743.000000	0.291538  
1742.000000	0.277328  
1741.000000	0.267529  
1740.000000	0.294399  
1739.000000	0.319457  
1738.000000	0.300335  
1737.000000	0.272989  
1736.000000	0.279903  
1735.000000	0.289940  
1734.000000	0.275802  
1733.000000	0.279378  
1732.000000	0.316715  
1731.000000	0.324702  
1730.000000	0.278472  
1729.000000	0.245189  
1728.000000	0.256919  
1727.000000	0.257301  
1726.000000	0.224900  
1725.000000	0.215721  
1724.000000	0.243639  
1723.000000	0.253129  
1722.000000	0.233650  
1721.000000	0.231575  
1720.000000	0.243449  
1719.000000	0.224137  
1718.000000	0.192332  
1717.000000	0.202512  
1716.000000	0.234436  
1715.000000	0.230145  
1714.000000	0.205516  
1713.000000	0.213956  
1712.000000	0.243091  
1711.000000	0.247097  
1710.000000	0.234127  
1709.000000	0.236034  
1708.000000	0.241374  
1707.000000	0.228333  
1706.000000	0.215482  
1705.000000	0.225567  
1704.000000	0.243663  
1703.000000	0.249576  
1702.000000	0.249052  
1701.000000	0.248980  
1700.000000	0.239062  
1699.000000	0.215792  
1698.000000	0.196385  
1697.000000	0.195789  
1696.000000	0.204157  
1695.000000	0.198316  
1694.000000	0.178718  
1693.000000	0.178790  
1692.000000	0.216245  
1691.000000	0.252079  
1690.000000	0.240731  
1689.000000	0.202178  
1688.000000	0.186276  
1687.000000	0.192761  
1686.000000	0.195312  
1685.000000	0.205755  
1684.000000	0.235676  
1683.000000	0.246334  
1682.000000	0.218605  
1681.000000	0.205588  
1680.000000	0.237631  
1679.000000	0.259304  
1678.000000	0.236821  
1677.000000	0.224232  
1676.000000	0.249314  
1675.000000	0.254631  
1674.000000	0.219321  
1673.000000	0.206899  
1672.000000	0.237369  
1671.000000	0.249099  
1670.000000	0.227785  
1669.000000	0.230979  
1668.000000	0.261926  
1667.000000	0.260996  
1666.000000	0.230669  
1665.000000	0.231146  
1664.000000	0.255703  
1663.000000	0.246310  
1662.000000	0.213766  
1661.000000	0.215244  
1660.000000	0.242257  
1659.000000	0.244975  
1658.000000	0.229454  
1657.000000	0.231051  
1656.000000	0.238680  
1655.000000	0.228571  
1654.000000	0.222563  
1653.000000	0.245332  
1652.000000	0.271487  
1651.000000	0.268840  
1650.000000	0.250482  
1649.000000	0.244641  
1648.000000	0.250935  
1647.000000	0.254511  
1646.000000	0.255298  
1645.000000	0.263953  
1644.000000	0.281834  
1643.000000	0.296139  
1642.000000	0.297188  
1641.000000	0.293946  
1640.000000	0.295996  
1639.000000	0.289559  
1638.000000	0.263905  
1637.000000	0.247430  
1636.000000	0.267052  
1635.000000	0.290966  
1634.000000	0.276613  
1633.000000	0.246834  
1632.000000	0.242376  
1631.000000	0.243186  
1630.000000	0.221610  
1629.000000	0.214076  
1628.000000	0.249409  
1627.000000	0.277781  
1626.000000	0.260400  
1625.000000	0.244975  
1624.000000	0.267887  
1623.000000	0.281786  
1622.000000	0.258660  
1621.000000	0.250601  
1620.000000	0.278043  
1619.000000	0.284504  
1618.000000	0.255942  
1617.000000	0.250697  
1616.000000	0.273370  
1615.000000	0.261545  
1614.000000	0.218796  
1613.000000	0.215792  
1612.000000	0.251173  
1611.000000	0.255823  
1610.000000	0.230383  
1609.000000	0.237822  
1608.000000	0.274658  
1607.000000	0.283908  
1606.000000	0.268077  
1605.000000	0.269246  
1604.000000	0.275468  
1603.000000	0.253677  
1602.000000	0.226640  
1601.000000	0.228548  
1600.000000	0.237870  
1599.000000	0.225210  
1598.000000	0.212907  
1597.000000	0.228548  
1596.000000	0.251102  
1595.000000	0.249719  
1594.000000	0.234365  
1593.000000	0.234150  
1592.000000	0.252556  
1591.000000	0.267982  
1590.000000	0.265502  
1589.000000	0.256586  
1588.000000	0.258946  
1587.000000	0.267314  
1586.000000	0.267529  
1585.000000	0.270771  
1584.000000	0.291919  
1583.000000	0.306129  
1582.000000	0.286006  
1581.000000	0.262975  
1580.000000	0.276255  
1579.000000	0.293374  
1578.000000	0.271391  
1577.000000	0.247240  
1576.000000	0.268030  
1575.000000	0.296401  
1574.000000	0.289583  
1573.000000	0.287270  
1572.000000	0.318503  
1571.000000	0.325083  
1570.000000	0.278949  
1569.000000	0.255727  
1568.000000	0.295543  
1567.000000	0.325655  
1566.000000	0.304007  
1565.000000	0.293231  
1564.000000	0.323390  
1563.000000	0.333046  
1562.000000	0.300431  
1561.000000	0.284481  
1560.000000	0.300812  
1559.000000	0.299048  
1558.000000	0.278258  
1557.000000	0.291323  
1556.000000	0.332593  
1555.000000	0.344800  
1554.000000	0.327610  
1553.000000	0.326442  
1552.000000	0.337076  
1551.000000	0.322437  
1550.000000	0.293397  
1549.000000	0.287628  
1548.000000	0.299954  
1547.000000	0.303196  
1546.000000	0.302529  
1545.000000	0.315952  
1544.000000	0.334429  
1543.000000	0.341105  
1542.000000	0.341987  
1541.000000	0.350022  
1540.000000	0.361251  
1539.000000	0.364422  
1538.000000	0.360298  
1537.000000	0.360918  
1536.000000	0.370121  
1535.000000	0.371861  
1534.000000	0.355696  
1533.000000	0.345230  
1532.000000	0.367450  
1531.000000	0.402092  
1530.000000	0.411701  
1529.000000	0.408840  
1528.000000	0.425577  
1527.000000	0.438737  
1526.000000	0.410032  
1525.000000	0.370860  
1524.000000	0.372624  
1523.000000	0.392484  
1522.000000	0.386047  
1521.000000	0.377702  
1520.000000	0.399994  
1519.000000	0.415325  
1518.000000	0.393486  
1517.000000	0.382304  
1516.000000	0.412583  
1515.000000	0.431323  
1514.000000	0.410389  
1513.000000	0.406074  
1512.000000	0.441193  
1511.000000	0.453662  
1510.000000	0.422120  
1509.000000	0.409507  
1508.000000	0.436496  
1507.000000	0.446677  
1506.000000	0.427913  
1505.000000	0.434041  
1504.000000	0.469112  
1503.000000	0.477576  
1502.000000	0.454378  
1501.000000	0.445699  
1500.000000	0.452256  
1499.000000	0.442647  
1498.000000	0.436806  
1497.000000	0.470757  
1496.000000	0.514531  
1495.000000	0.517940  
1494.000000	0.499105  
1493.000000	0.506353  
1492.000000	0.536656  
1491.000000	0.555753  
1490.000000	0.561141  
1489.000000	0.571274  
1488.000000	0.588011  
1487.000000	0.603008  
1486.000000	0.621843  
1485.000000	0.655245  
1484.000000	0.701880  
1483.000000	0.747704  
1482.000000	0.785446  
1481.000000	0.825929  
1480.000000	0.880646  
1479.000000	0.936198  
1478.000000	0.977873  
1477.000000	1.027750  
1476.000000	1.118183  
1475.000000	1.232957  
1474.000000	1.334738  
1473.000000	1.436734  
1472.000000	1.575946  
1471.000000	1.743459  
1470.000000	1.919889  
1469.000000	2.155280  
1468.000000	2.510738  
1467.000000	2.975440  
1466.000000	3.511238  
1465.000000	4.097270  
1464.000000	4.657411  
1463.000000	5.034160  
1462.000000	5.172348  
1461.000000	5.194258  
1460.000000	5.230593  
1459.000000	5.285024  
1458.000000	5.370426  
1457.000000	5.602073  
1456.000000	6.067037  
1455.000000	6.697034  
1454.000000	7.331395  
1453.000000	7.771468  
1452.000000	7.784628  
1451.000000	7.235336  
1450.000000	6.259393  
1449.000000	5.185699  
1448.000000	4.262828  
1447.000000	3.557205  
1446.000000	3.064608  
1445.000000	2.773332  
1444.000000	2.624106  
1443.000000	2.539896  
1442.000000	2.496385  
1441.000000	2.508783  
1440.000000	2.564382  
1439.000000	2.636742  
1438.000000	2.722549  
1437.000000	2.828931  
1436.000000	2.938723  
1435.000000	3.027272  
1434.000000	3.097009  
1433.000000	3.160429  
1432.000000	3.227114  
1431.000000	3.283071  
1430.000000	3.316926  
1429.000000	3.329706  
1428.000000	3.330779  
1427.000000	3.310370  
1426.000000	3.258132  
1425.000000	3.197979  
1424.000000	3.165316  
1423.000000	3.150343  
1422.000000	3.127551  
1421.000000	3.126573  
1420.000000	3.196048  
1419.000000	3.314685  
1418.000000	3.433775  
1417.000000	3.575921  
1416.000000	3.788399  
1415.000000	4.037880  
1414.000000	4.260349  
1413.000000	4.458045  
1412.000000	4.645490  
1411.000000	4.770755  
1410.000000	4.804015  
1409.000000	4.813551  
1408.000000	4.863405  
1407.000000	4.919052  
1406.000000	4.945373  
1405.000000	4.977917  
1404.000000	5.030918  
1403.000000	5.046558  
1402.000000	5.005455  
1401.000000	4.958844  
1400.000000	4.911613  
1399.000000	4.793572  
1398.000000	4.583406  
1397.000000	4.341387  
1396.000000	4.101252  
1395.000000	3.840160  
1394.000000	3.565168  
1393.000000	3.326463  
1392.000000	3.141832  
1391.000000	2.991747  
1390.000000	2.880549  
1389.000000	2.825593  
1388.000000	2.810311  
1387.000000	2.804017  
1386.000000	2.813768  
1385.000000	2.853155  
1384.000000	2.905368  
1383.000000	2.940845  
1382.000000	2.967786  
1381.000000	3.012609  
1380.000000	3.088212  
1379.000000	3.182649  
1378.000000	3.292346  
1377.000000	3.436017  
1376.000000	3.639721  
1375.000000	3.904008  
1374.000000	4.212474  
1373.000000	4.566812  
1372.000000	4.976344  
1371.000000	5.409359  
1370.000000	5.805802  
1369.000000	6.143999  
1368.000000	6.440687  
1367.000000	6.688475  
1366.000000	6.859135  
1365.000000	6.961202  
1364.000000	7.021164  
1363.000000	7.025313  
1362.000000	6.957006  
1361.000000	6.858658  
1360.000000	6.781792  
1359.000000	6.708669  
1358.000000	6.609487  
1357.000000	6.507134  
1356.000000	6.421089  
1355.000000	6.300711  
1354.000000	6.115865  
1353.000000	5.918884  
1352.000000	5.766248  
1351.000000	5.646657  
1350.000000	5.561947  
1349.000000	5.556058  
1348.000000	5.618715  
1347.000000	5.666208  
1346.000000	5.667471  
1345.000000	5.668306  
1344.000000	5.668854  
1343.000000	5.603885  
1342.000000	5.463981  
1341.000000	5.310344  
1340.000000	5.165362  
1339.000000	5.001068  
1338.000000	4.837322  
1337.000000	4.730272  
1336.000000	4.685568  
1335.000000	4.668879  
1334.000000	4.687213  
1333.000000	4.773163  
1332.000000	4.913830  
1331.000000	5.074095  
1330.000000	5.253410  
1329.000000	5.481100  
1328.000000	5.767130  
1327.000000	6.107568  
1326.000000	6.510090  
1325.000000	6.997680  
1324.000000	7.575225  
1323.000000	8.200836  
1322.000000	8.777284  
1321.000000	9.184145  
1320.000000	9.325146  
1319.000000	9.169149  
1318.000000	8.779287  
1317.000000	8.303689  
1316.000000	7.886695  
1315.000000	7.571172  
1314.000000	7.321929  
1313.000000	7.116818  
1312.000000	6.947660  
1311.000000	6.758689  
1310.000000	6.493330  
1309.000000	6.180548  
1308.000000	5.880928  
1307.000000	5.579638  
1306.000000	5.240750  
1305.000000	4.909229  
1304.000000	4.649543  
1303.000000	4.447841  
1302.000000	4.267430  
1301.000000	4.142975  
1300.000000	4.098558  
1299.000000	4.093408  
1298.000000	4.100275  
1297.000000	4.171395  
1296.000000	4.328036  
1295.000000	4.512023  
1294.000000	4.689741  
1293.000000	4.903364  
1292.000000	5.166769  
1291.000000	5.431294  
1290.000000	5.689811  
1289.000000	6.002283  
1288.000000	6.395363  
1287.000000	6.834936  
1286.000000	7.294416  
1285.000000	7.768392  
1284.000000	8.197975  
1283.000000	8.499169  
1282.000000	8.642125  
1281.000000	8.662199  
1280.000000	8.592677  
1279.000000	8.487582  
1278.000000	8.456778  
1277.000000	8.651995  
1276.000000	9.170961  
1275.000000	10.014343 
1274.000000	11.033463 
1273.000000	11.916399 
1272.000000	12.271165 
1271.000000	11.835956 
1270.000000	10.649108 
1269.000000	9.030699  
1268.000000	7.385587  
1267.000000	5.988478  
1266.000000	4.922032  
1265.000000	4.159736  
1264.000000	3.641629  
1263.000000	3.278613  
1262.000000	2.986526  
1261.000000	2.751684  
1260.000000	2.604556  
1259.000000	2.525424  
1258.000000	2.463126  
1257.000000	2.426028  
1256.000000	2.458453  
1255.000000	2.550387  
1254.000000	2.665281  
1253.000000	2.842998  
1252.000000	3.127932  
1251.000000	3.482699  
1250.000000	3.830194  
1249.000000	4.158401  
1248.000000	4.454803  
1247.000000	4.644703  
1246.000000	4.674601  
1245.000000	4.600143  
1244.000000	4.495954  
1243.000000	4.374289  
1242.000000	4.246163  
1241.000000	4.163050  
1240.000000	4.133057  
1239.000000	4.092955  
1238.000000	4.014277  
1237.000000	3.937554  
1236.000000	3.881263  
1235.000000	3.813886  
1234.000000	3.736519  
1233.000000	3.697228  
1232.000000	3.708004  
1231.000000	3.727793  
1230.000000	3.728580  
1229.000000	3.708720  
1228.000000	3.650140  
1227.000000	3.528904  
1226.000000	3.364419  
1225.000000	3.210210  
1224.000000	3.104281  
1223.000000	3.058123  
1222.000000	3.072166  
1221.000000	3.131675  
1220.000000	3.190135  
1219.000000	3.177309  
1218.000000	3.041338  
1217.000000	2.788424  
1216.000000	2.476739  
1215.000000	2.163600  
1214.000000	1.878070  
1213.000000	1.643037  
1212.000000	1.482915  
1211.000000	1.389765  
1210.000000	1.324892  
1209.000000	1.269507  
1208.000000	1.232290  
1207.000000	1.204061  
1206.000000	1.162004  
1205.000000	1.118350  
1204.000000	1.101756  
1203.000000	1.098108  
1202.000000	1.076698  
1201.000000	1.059150  
1200.000000	1.078605  
1199.000000	1.108646  
1198.000000	1.107192  
1197.000000	1.098561  
1196.000000	1.117181  
1195.000000	1.132535  
1194.000000	1.109051  
1193.000000	1.083922  
1192.000000	1.096653  
1191.000000	1.119828  
1190.000000	1.125502  
1189.000000	1.145982  
1188.000000	1.197266  
1187.000000	1.236343  
1186.000000	1.245617  
1185.000000	1.272439  
1184.000000	1.339173  
1183.000000	1.409292  
1182.000000	1.469230  
1181.000000	1.554894  
1180.000000	1.675820  
1179.000000	1.798081  
1178.000000	1.912736  
1177.000000	2.041530  
1176.000000	2.177023  
1175.000000	2.288222  
1174.000000	2.380800  
1173.000000	2.492070  
1172.000000	2.631688  
1171.000000	2.788114  
1170.000000	2.970504  
1169.000000	3.214144  
1168.000000	3.540968  
1167.000000	3.951525  
1166.000000	4.438328  
1165.000000	4.994821  
1164.000000	5.598044  
1163.000000	6.186652  
1162.000000	6.669020  
1161.000000	6.964421  
1160.000000	7.034540  
1159.000000	6.878876  
1158.000000	6.538319  
1157.000000	6.116008  
1156.000000	5.739808  
1155.000000	5.484223  
1154.000000	5.357241  
1153.000000	5.361700  
1152.000000	5.502676  
1151.000000	5.738806  
1150.000000	5.995941  
1149.000000	6.229400  
1148.000000	6.405019  
1147.000000	6.440973  
1146.000000	6.263709  
1145.000000	5.904126  
1144.000000	5.465888  
1143.000000	5.028533  
1142.000000	4.649662  
1141.000000	4.406595  
1140.000000	4.332113  
1139.000000	4.376149  
1138.000000	4.487895  
1137.000000	4.690051  
1136.000000	4.984402  
1135.000000	5.286765  
1134.000000	5.494427  
1133.000000	5.579900  
1132.000000	5.543875  
1131.000000	5.390787  
1130.000000	5.174398  
1129.000000	5.005383  
1128.000000	4.963326  
1127.000000	5.068182  
1126.000000	5.338597  
1125.000000	5.811548  
1124.000000	6.490826  
1123.000000	7.343888  
1122.000000	8.339238  
1121.000000	9.427928  
1120.000000	10.484647 
1119.000000	11.330056 
1118.000000	11.818957 
1117.000000	11.889147 
1116.000000	11.553359 
1115.000000	10.877966 
1114.000000	9.970331  
1113.000000	8.937478  
1112.000000	7.863259  
1111.000000	6.809926  
1110.000000	5.835652  
1109.000000	4.995059  
1108.000000	4.316520  
1107.000000	3.789520  
1106.000000	3.378653  
1105.000000	3.068828  
1104.000000	2.863001  
1103.000000	2.750325  
1102.000000	2.698278  
1101.000000	2.700734  
1100.000000	2.775692  
1099.000000	2.922677  
1098.000000	3.128409  
1097.000000	3.420257  
1096.000000	3.842949  
1095.000000	4.386401  
1094.000000	4.990792  
1093.000000	5.618309  
1092.000000	6.221675  
1091.000000	6.710672  
1090.000000	7.015490  
1089.000000	7.185864  
1088.000000	7.316803  
1087.000000	7.430243  
1086.000000	7.509946  
1085.000000	7.569289  
1084.000000	7.620120  
1083.000000	7.620286  
1082.000000	7.573604  
1081.000000	7.588720  
1080.000000	7.808518  
1079.000000	8.312845  
1078.000000	9.129285  
1077.000000	10.187458 
1076.000000	11.221909 
1075.000000	11.843991 
1074.000000	11.795687 
1073.000000	11.120367 
1072.000000	10.070562 
1071.000000	8.947610  
1070.000000	7.996082  
1069.000000	7.355737  
1068.000000	7.041049  
1067.000000	7.009673  
1066.000000	7.244610  
1065.000000	7.778477  
1064.000000	8.643364  
1063.000000	9.834909  
1062.000000	11.267113 
1061.000000	12.743091 
1060.000000	13.946533 
1059.000000	14.538264 
1058.000000	14.322185 
1057.000000	13.387537 
1056.000000	12.080550 
1055.000000	10.783338 
1054.000000	9.744024  
1053.000000	9.063029  
1052.000000	8.751797  
1051.000000	8.726739  
1050.000000	8.814883  
1049.000000	8.852696  
1048.000000	8.747434  
1047.000000	8.460140  
1046.000000	7.992053  
1045.000000	7.410025  
1044.000000	6.807422  
1043.000000	6.226348  
1042.000000	5.666470  
1041.000000	5.166363  
1040.000000	4.790139  
1039.000000	4.557418  
1038.000000	4.449558  
1037.000000	4.476189  
1036.000000	4.662466  
1035.000000	4.990291  
1034.000000	5.421352  
1033.000000	5.935740  
1032.000000	6.476616  
1031.000000	6.916236  
1030.000000	7.126903  
1029.000000	7.075119  
1028.000000	6.774425  
1027.000000	6.251597  
1026.000000	5.580830  
1025.000000	4.906630  
1024.000000	4.348707  
1023.000000	3.944945  
1022.000000	3.699970  
1021.000000	3.634762  
1020.000000	3.755497  
1019.000000	4.021525  
1018.000000	4.364275  
1017.000000	4.705882  
1016.000000	4.956936  
1015.000000	5.041718  
1014.000000	4.945325  
1013.000000	4.724502  
1012.000000	4.473090  
1011.000000	4.274153  
1010.000000	4.181122  
1009.000000	4.218363  
1008.000000	4.399538  
1007.000000	4.718637  
1006.000000	5.136203  
1005.000000	5.566549  
1004.000000	5.889844  
1003.000000	5.978775  
1002.000000	5.760645  
1001.000000	5.294680  
1000.000000	4.741048  
999.000000	 4.237651  
998.000000	 3.827095  
997.000000	 3.530693  
996.000000	 3.403329  
995.000000	 3.485465  
994.000000	 3.755235  
993.000000	 4.160904  
992.000000	 4.621601  
991.000000	 4.992246  
990.000000	 5.111551  
989.000000	 4.923558  
988.000000	 4.497981  
987.000000	 3.941965  
986.000000	 3.345942  
985.000000	 2.800416  
984.000000	 2.368998  
983.000000	 2.046418  
982.000000	 1.788640  
981.000000	 1.580262  
980.000000	 1.430249  
979.000000	 1.326465  
978.000000	 1.244306  
977.000000	 1.175355  
976.000000	 1.118993  
975.000000	 1.061964  
974.000000	 1.000738  
973.000000	 0.954890  
972.000000	 0.934123  
971.000000	 0.924944  
970.000000	 0.912666  
969.000000	 0.908637  
968.000000	 0.920891  
967.000000	 0.943922  
966.000000	 0.971746  
965.000000	 1.012778  
964.000000	 1.070547  
963.000000	 1.139950  
962.000000	 1.219439  
961.000000	 1.313495  
960.000000	 1.420807  
959.000000	 1.536011  
958.000000	 1.661300  
957.000000	 1.807427  
956.000000	 1.982474  
955.000000	 2.194333  
954.000000	 2.451038  
953.000000	 2.755403  
952.000000	 3.081154  
951.000000	 3.364276  
950.000000	 3.534221  
949.000000	 3.576993  
948.000000	 3.550171  
947.000000	 3.520393  
946.000000	 3.508090  
945.000000	 3.502058  
944.000000	 3.487753  
943.000000	 3.426671  
942.000000	 3.270077  
941.000000	 3.012752  
940.000000	 2.715539  
939.000000	 2.432656  
938.000000	 2.194714  
937.000000	 2.031397  
936.000000	 1.978540  
935.000000	 2.023124  
934.000000	 2.122855  
933.000000	 2.274608  
932.000000	 2.524280  
931.000000	 2.914929  
930.000000	 3.492116  
929.000000	 4.341387  
928.000000	 5.556344  
927.000000	 7.138657  
926.000000	 8.951878  
925.000000	 10.728263 
924.000000	 12.100958 
923.000000	 12.724065 
922.000000	 12.467193 
921.000000	 11.512231 
920.000000	 10.222339 
919.000000	 8.940887  
918.000000	 7.901167  
917.000000	 7.218289  
916.000000	 6.891989  
915.000000	 6.812787  
914.000000	 6.834244  
913.000000	 6.820654  
912.000000	 6.675291  
911.000000	 6.346178  
910.000000	 5.851316  
909.000000	 5.268073  
908.000000	 4.694485  
907.000000	 4.192471  
906.000000	 3.771281  
905.000000	 3.413581  
904.000000	 3.128361  
903.000000	 2.927398  
902.000000	 2.811193  
901.000000	 2.770543  
900.000000	 2.842211  
899.000000	 3.085875  
898.000000	 3.556418  
897.000000	 4.323816  
896.000000	 5.441474  
895.000000	 6.853413  
894.000000	 8.319211  
893.000000	 9.537816  
892.000000	 10.330271 
891.000000	 10.756182 
890.000000	 11.087870 
889.000000	 11.705517 
888.000000	 12.877750 
887.000000	 14.540743 
886.000000	 16.260075 
885.000000	 17.448592 
884.000000	 17.676019 
883.000000	 16.858363 
882.000000	 15.264201 
881.000000	 13.347148 
880.000000	 11.501359 
879.000000	 9.900975  
878.000000	 8.574509  
877.000000	 7.550549  
876.000000	 6.895303  
875.000000	 6.611371  
874.000000	 6.614279  
873.000000	 6.779623  
872.000000	 6.981253  
871.000000	 7.072424  
870.000000	 6.927633  
869.000000	 6.490135  
868.000000	 5.800437  
867.000000	 4.971528  
866.000000	 4.134893  
865.000000	 3.411650  
864.000000	 2.849578  
863.000000	 2.441477  
862.000000	 2.137446  
861.000000	 1.897239  
860.000000	 1.699805  
859.000000	 1.544165  
858.000000	 1.426410  
857.000000	 1.333022  
856.000000	 1.249241  
855.000000	 1.168751  
854.000000	 1.094317  
853.000000	 1.032519  
852.000000	 0.993227  
851.000000	 0.972914  
850.000000	 0.952911  
849.000000	 0.922465  
848.000000	 0.900721  
847.000000	 0.901055  
846.000000	 0.901269  
845.000000	 0.879502  
844.000000	 0.856995  
843.000000	 0.853991  
842.000000	 0.847339  
841.000000	 0.816798  
840.000000	 0.793385  
839.000000	 0.804948  
838.000000	 0.824952  
837.000000	 0.820946  
836.000000	 0.807642  
835.000000	 0.804662  
834.000000	 0.800991  
833.000000	 0.793457  
832.000000	 0.805878  
831.000000	 0.839924  
830.000000	 0.866150  
829.000000	 0.879168  
828.000000	 0.905394  
827.000000	 0.948858  
826.000000	 0.988936  
825.000000	 1.031184  
824.000000	 1.099109  
823.000000	 1.181244  
822.000000	 1.245379  
821.000000	 1.297378  
820.000000	 1.367807  
819.000000	 1.457810  
818.000000	 1.546955  
817.000000	 1.640176  
816.000000	 1.760888  
815.000000	 1.912593  
814.000000	 2.081584  
813.000000	 2.261662  
812.000000	 2.456879  
811.000000	 2.660393  
810.000000	 2.852940  
809.000000	 3.018450  
808.000000	 3.164386  
807.000000	 3.308892  
806.000000	 3.451204  
805.000000	 3.566193  
804.000000	 3.638482  
803.000000	 3.671765  
802.000000	 3.661775  
801.000000	 3.595256  
800.000000	 3.481602  
799.000000	 3.344893  
798.000000	 3.185772  
797.000000	 2.999711  
796.000000	 2.818965  
795.000000	 2.677178  
794.000000	 2.548193  
793.000000	 2.392983  
792.000000	 2.235770  
791.000000	 2.123665  
790.000000	 2.043819  
789.000000	 1.961469  
788.000000	 1.889061  
787.000000	 1.845383  
786.000000	 1.798319  
785.000000	 1.721167  
784.000000	 1.648449  
783.000000	 1.610493  
782.000000	 1.581478  
781.000000	 1.538586  
780.000000	 1.507735  
779.000000	 1.500725  
778.000000	 1.486587  
777.000000	 1.453280  
776.000000	 1.431536  
775.000000	 1.431512  
774.000000	 1.424407  
773.000000	 1.400732  
772.000000	 1.387310  
771.000000	 1.396822  
770.000000	 1.410675  
769.000000	 1.417970  
768.000000	 1.430702  
767.000000	 1.458835  
766.000000	 1.495647  
765.000000	 1.530313  
764.000000	 1.557850  
763.000000	 1.579093  
762.000000	 1.595735  
761.000000	 1.611685  
760.000000	 1.638007  
759.000000	 1.685357  
758.000000	 1.738595  
757.000000	 1.765537  
756.000000	 1.766920  
755.000000	 1.783967  
754.000000	 1.833128  
753.000000	 1.882576  
752.000000	 1.914906  
751.000000	 1.953768  
750.000000	 2.004003  
749.000000	 2.037715  
748.000000	 2.059292  
747.000000	 2.108001  
746.000000	 2.180624  
745.000000	 2.231860  
744.000000	 2.256464  
743.000000	 2.289080  
742.000000	 2.327680  
741.000000	 2.349424  
740.000000	 2.380275  
739.000000	 2.458906  
738.000000	 2.556180  
737.000000	 2.628970  
736.000000	 2.704334  
735.000000	 2.829360  
734.000000	 2.980399  
733.000000	 3.120827  
732.000000	 3.275489  
731.000000	 3.474760  
730.000000	 3.675079  
729.000000	 3.812646  
728.000000	 3.871369  
727.000000	 3.852534  
726.000000	 3.739333  
725.000000	 3.539609  
724.000000	 3.306174  
723.000000	 3.080511  
722.000000	 2.861022  
721.000000	 2.642273  
720.000000	 2.443194  
719.000000	 2.282190  
718.000000	 2.153825  
717.000000	 2.042245  
716.000000	 1.943802  
715.000000	 1.868319  
714.000000	 1.819705  
713.000000	 1.783108  
712.000000	 1.743435  
711.000000	 1.705813  
710.000000	 1.675462  
709.000000	 1.637911  
708.000000	 1.583933  
707.000000	 1.537775  
706.000000	 1.515769  
705.000000	 1.497507  
704.000000	 1.466584  
703.000000	 1.446509  
702.000000	 1.449108  
701.000000	 1.444530  
700.000000	 1.417398  
699.000000	 1.398992  
698.000000	 1.403021  
697.000000	 1.398253  
696.000000	 1.373052  
695.000000	 1.357054  
694.000000	 1.354503  
693.000000	 1.335906  
692.000000	 1.308059  
691.000000	 1.308536  
690.000000	 1.326823  
689.000000	 1.321411  
688.000000	 1.307773  
687.000000	 1.331543  
686.000000	 1.375484  
685.000000	 1.392936  
684.000000	 1.403379  
683.000000	 1.446962  
682.000000	 1.495289  
681.000000	 1.506853  
680.000000	 1.520633  
679.000000	 1.586270  
678.000000	 1.671957  
677.000000	 1.723670  
676.000000	 1.758456  
675.000000	 1.815295  
674.000000	 1.888799  
673.000000	 1.968455  
672.000000	 2.080011  
671.000000	 2.230668  
670.000000	 2.385592  
669.000000	 2.527976  
668.000000	 2.682924  
667.000000	 2.859425  
666.000000	 3.028678  
665.000000	 3.173303  
664.000000	 3.309845  
663.000000	 3.452992  
662.000000	 3.593015  
661.000000	 3.720903  
660.000000	 3.858137  
659.000000	 4.041814  
658.000000	 4.269599  
657.000000	 4.479980  
656.000000	 4.613161  
655.000000	 4.665970  
654.000000	 4.642057  
653.000000	 4.507756  
652.000000	 4.255986  
651.000000	 3.972005  
650.000000	 3.737640  
649.000000	 3.556632  
648.000000	 3.410005  
647.000000	 3.333878  
646.000000	 3.332114  
645.000000	 3.352570  
644.000000	 3.385686  
643.000000	 3.497552  
642.000000	 3.705215  
641.000000	 3.949260  
640.000000	 4.234504  
639.000000	 4.651904  
638.000000	 5.245256  
637.000000	 5.981540  
636.000000	 6.872916  
635.000000	 7.972288  
634.000000	 9.230017  
633.000000	 10.466980 
632.000000	 11.490702 
631.000000	 12.131118 
630.000000	 12.232160 
629.000000	 11.755871 
628.000000	 10.869193 
627.000000	 9.804606  
626.000000	 8.690953  
625.000000	 7.604098  
624.000000	 6.659984  
623.000000	 5.938816  
622.000000	 5.384659  
621.000000	 4.917407  
620.000000	 4.536795  
619.000000	 4.273080  
618.000000	 4.090356  
617.000000	 3.941082  
616.000000	 3.820109  
615.000000	 3.737306  
614.000000	 3.678202  
613.000000	 3.632664  
612.000000	 3.620958  
611.000000	 3.666925  
610.000000	 3.768444  
609.000000	 3.896188  
608.000000	 4.037952  
607.000000	 4.222488  
606.000000	 4.488468  
605.000000	 4.834079  
604.000000	 5.250859  
603.000000	 5.769205  
602.000000	 6.410193  
601.000000	 7.111072  
600.000000	 7.780170  
599.000000	 8.365797  
598.000000	 8.798122  
597.000000	 8.947634  
596.000000	 8.752036  
595.000000	 8.299827  
594.000000	 7.694125  
593.000000	 6.955432  
592.000000	 6.143927  
591.000000	 5.413031  
590.000000	 4.838347  
589.000000	 4.344940  
588.000000	 3.893113  
587.000000	 3.546547  
586.000000	 3.307604  
585.000000	 3.074550  
584.000000	 2.825236  
583.000000	 2.645635  
582.000000	 2.556419  
581.000000	 2.487921  
580.000000	 2.435398  
579.000000	 2.444410  
578.000000	 2.474260  
577.000000	 2.442216  
576.000000	 2.384519  
575.000000	 2.384543  
574.000000	 2.421808  
573.000000	 2.426052  
572.000000	 2.426695  
571.000000	 2.479410  
570.000000	 2.551031  
569.000000	 2.579498  
568.000000	 2.594304  
567.000000	 2.647495  
566.000000	 2.730321  
565.000000	 2.802085  
564.000000	 2.875542  
563.000000	 2.973771  
562.000000	 3.099775  
561.000000	 3.237795  
560.000000	 3.404259  
559.000000	 3.618049  
558.000000	 3.893017  
557.000000	 4.207634  
556.000000	 4.564619  
555.000000	 5.004596  
554.000000	 5.591297  
553.000000	 6.342577  
552.000000	 7.281112  
551.000000	 8.494400  
550.000000	 10.110998 
549.000000	 12.205719 
548.000000	 14.866709 
547.000000	 18.203020 
546.000000	 22.180461 
545.000000	 26.400756 
544.000000	 30.214953 
543.000000	 32.965850 
542.000000	 34.142947 
541.000000	 33.509373 
540.000000	 31.318569 
539.000000	 28.285241 
538.000000	 25.177860 
537.000000	 22.452235 
536.000000	 20.290613 
535.000000	 18.703174 
534.000000	 17.519140 
533.000000	 16.441106 
532.000000	 15.310215 
531.000000	 14.134693 
530.000000	 12.911748 
529.000000	 11.599278 
528.000000	 10.296845 
527.000000	 9.177374  
526.000000	 8.257341  
525.000000	 7.420563  
524.000000	 6.680607  
523.000000	 6.124162  
522.000000	 5.714988  
521.000000	 5.322575  
520.000000	 4.951214  
519.000000	 4.667925  
518.000000	 4.441165  
517.000000	 4.191684  
516.000000	 3.957080  
515.000000	 3.801727  
514.000000	 3.697896  
513.000000	 3.566789  
512.000000	 3.411364  
511.000000	 3.270554  
510.000000	 3.160500  
509.000000	 3.074502  
508.000000	 3.026652  
507.000000	 3.017640  
506.000000	 3.017687  
505.000000	 2.982950  
504.000000	 2.910161  
503.000000	 2.848839  
502.000000	 2.846980  
501.000000	 2.884697  
500.000000	 2.912425  
499.000000	 2.936935  
498.000000	 3.001022  
497.000000	 3.099989  
496.000000	 3.224825  
495.000000	 3.441596  
494.000000	 3.793478  
493.000000	 4.178667  
492.000000	 4.470586  
491.000000	 4.671454  
490.000000	 4.794502  
489.000000	 4.740691  
488.000000	 4.468393  
487.000000	 4.130697  
486.000000	 3.852725  
485.000000	 3.568935  
484.000000	 3.232693  
483.000000	 2.968835  
482.000000	 2.843880  
481.000000	 2.741432  
480.000000	 2.601313  
479.000000	 2.529144  
478.000000	 2.557802  
477.000000	 2.578067  
476.000000	 2.578020  
475.000000	 2.672600  
474.000000	 2.861070  
473.000000	 3.027534  
472.000000	 3.192090  
471.000000	 3.482508  
470.000000	 3.879165  
469.000000	 4.249691  
468.000000	 4.588341  
467.000000	 4.966306  
466.000000	 5.319666  
465.000000	 5.524802  
464.000000	 5.602979  
463.000000	 5.649495  
462.000000	 5.665326  
461.000000	 5.620646  
460.000000	 5.583620  
459.000000	 5.628585  
458.000000	 5.716943  
457.000000	 5.755257  
456.000000	 5.714464  
455.000000	 5.615091  
454.000000	 5.463552  
453.000000	 5.255436  
452.000000	 5.018520  
451.000000	 4.830598  
450.000000	 4.763102  
449.000000	 4.825758  
448.000000	 5.002617  
447.000000	 5.333542  
446.000000	 5.856847  
445.000000	 6.491136  
444.000000	 7.088041  
443.000000	 7.584857  
442.000000	 7.946348  
441.000000	 8.043360  
440.000000	 7.775521  
439.000000	 7.275962  
438.000000	 6.728887  
437.000000	 6.160807  
436.000000	 5.541872  
435.000000	 5.006170  
434.000000	 4.653286  
433.000000	 4.374790  
432.000000	 4.100871  
431.000000	 3.968715  
430.000000	 4.074454  
429.000000	 4.288291  
428.000000	 4.587864  
427.000000	 5.195856  
426.000000	 6.287288  
425.000000	 7.821583  
424.000000	 9.807324  
423.000000	 12.249255 
422.000000	 14.744615 
421.000000	 16.514539 
420.000000	 17.023587 
419.000000	 16.319155 
418.000000	 14.780521 
417.000000	 12.849187 
416.000000	 10.958456 
415.000000	 9.384465  
414.000000	 8.096647  
413.000000	 6.978297  
412.000000	 6.089782  
411.000000	 5.575370  
410.000000	 5.401492  
409.000000	 5.455017  
408.000000	 5.721545  
407.000000	 6.219387  
406.000000	 6.801104  
405.000000	 7.238578  
404.000000	 7.383894  
403.000000	 7.217311  
402.000000	 6.785583  
401.000000	 6.182885  
400.000000	 5.567669  
399.000000	 5.099582  
398.000000	 4.881525  
397.000000	 4.923367  
396.000000	 5.205726  
395.000000	 5.734801  
394.000000	 6.452918  
393.000000	 7.111501  
392.000000	 7.390475  
391.000000	 7.169580  
390.000000	 6.553840  
389.000000	 5.681324  
388.000000	 4.695510  
387.000000	 3.834104  
386.000000	 3.260254  
385.000000	 2.880835  
384.000000	 2.547407  
383.000000	 2.326869  
382.000000	 2.295732  
381.000000	 2.305889  
380.000000	 2.228140  
379.000000	 2.201104  
378.000000	 2.344894  
377.000000	 2.510738  
376.000000	 2.596426  
375.000000	 2.767872  
374.000000	 3.128623  
373.000000	 3.521275  
372.000000	 3.880262  
371.000000	 4.388523  
370.000000	 5.102348  
369.000000	 5.829477  
368.000000	 6.490302  
367.000000	 7.181239  
366.000000	 7.816243  
365.000000	 8.131432  
364.000000	 8.086395  
363.000000	 7.872962  
362.000000	 7.544064  
361.000000	 7.014775  
360.000000	 6.371951  
359.000000	 5.815315  
358.000000	 5.352544  
357.000000	 4.874467  
356.000000	 4.416728  
355.000000	 4.095411  
354.000000	 3.878784  
353.000000	 3.668713  
352.000000	 3.474640  
351.000000	 3.366136  
350.000000	 3.329014  
349.000000	 3.305888  
348.000000	 3.291130  
347.000000	 3.316020  
346.000000	 3.381323  
345.000000	 3.443145  
344.000000	 3.478622  
343.000000	 3.531646  
342.000000	 3.652572  
341.000000	 3.791356  
340.000000	 3.866314  
339.000000	 3.919506  
338.000000	 4.048752  
337.000000	 4.205107  
336.000000	 4.277181  
335.000000	 4.330062  
334.000000	 4.489207  
333.000000	 4.663610  
332.000000	 4.700708  
331.000000	 4.694962  
330.000000	 4.793500  
329.000000	 4.875254  
328.000000	 4.797506  
327.000000	 4.714727  
326.000000	 4.780030  
325.000000	 4.823708  
324.000000	 4.709029  
323.000000	 4.635787  
322.000000	 4.750180  
321.000000	 4.846334  
320.000000	 4.795193  
319.000000	 4.800200  
318.000000	 4.958152  
317.000000	 5.044507  
316.000000	 4.968571  
315.000000	 4.923677  
314.000000	 4.933333  
313.000000	 4.771590  
312.000000	 4.434967  
311.000000	 4.172086  
310.000000	 4.009532  
309.000000	 3.746175  
308.000000	 3.403472  
307.000000	 3.195905  
306.000000	 3.107261  
305.000000	 2.949309  
304.000000	 2.747511  
303.000000	 2.665066  
302.000000	 2.668046  
301.000000	 2.603006  
300.000000	 2.488327  
299.000000	 2.440142  
298.000000	 2.454280  
297.000000	 2.442693  
296.000000	 2.402663  
295.000000	 2.389359  
294.000000	 2.412271  
293.000000	 2.433180  
292.000000	 2.442932  
291.000000	 2.497649  
290.000000	 2.652883  
289.000000	 2.877926  
288.000000	 3.115773  
287.000000	 3.427243  
286.000000	 3.909420  
285.000000	 4.474830  
284.000000	 4.928565  
283.000000	 5.245304  
282.000000	 5.481767  
281.000000	 5.493426  
280.000000	 5.119180  
279.000000	 4.555988  
278.000000	 4.110002  
277.000000	 3.728508  
276.000000	 3.241419  
275.000000	 2.811241  
274.000000	 2.632737  
273.000000	 2.493643  
272.000000	 2.179336  
271.000000	 1.910781  
270.000000	 1.899528  
269.000000	 1.908516  
268.000000	 1.747727  
267.000000	 1.661849  
266.000000	 1.806807  
265.000000	 1.910376  
264.000000	 1.832485  
263.000000	 1.830005  
262.000000	 1.970386  
261.000000	 1.949024  
260.000000	 1.701903  
259.000000	 1.542830  
258.000000	 1.546359  
257.000000	 1.453948  
256.000000	 1.244735  
255.000000	 1.178956  
254.000000	 1.260066  
253.000000	 1.244688  
252.000000	 1.139283  
251.000000	 1.155209  
250.000000	 1.267528  
249.000000	 1.292657  
248.000000	 1.266932  
247.000000	 1.353883  
246.000000	 1.522946  
245.000000	 1.634669  
244.000000	 1.697325  
243.000000	 1.798176  
242.000000	 1.907563  
241.000000	 1.909470  
240.000000	 1.773166  
239.000000	 1.594924  
238.000000	 1.478409  
237.000000	 1.407217  
236.000000	 1.305747  
235.000000	 1.213526  
234.000000	 1.237654  
233.000000	 1.319980  
232.000000	 1.305747  
231.000000	 1.253604  
230.000000	 1.341724  
229.000000	 1.484394  
228.000000	 1.457238  
227.000000	 1.350545  
226.000000	 1.403045  
225.000000	 1.501035  
224.000000	 1.409387  
223.000000	 1.304841  
222.000000	 1.453495  
221.000000	 1.643610  
220.000000	 1.588678  
219.000000	 1.510763  
218.000000	 1.666545  
217.000000	 1.785945  
216.000000	 1.627731  
215.000000	 1.502490  
214.000000	 1.636195  
213.000000	 1.684212  
212.000000	 1.444959  
211.000000	 1.294159  
210.000000	 1.419067  
209.000000	 1.443147  
208.000000	 1.216053  
207.000000	 1.111388  
206.000000	 1.237297  
205.000000	 1.227068  
204.000000	 1.014161  
203.000000	 0.952792  
202.000000	 1.073145  
201.000000	 1.031160  
200.000000	 0.819492  

